Time (s),$ T_{tr} $ (nexaFoam)_Temp,$ T_{vib} $ (nexaFoam)_Temp
0.0,3000.0,3000.0
1e-08,3000.39,9999.02
2e-08,3000.78,9998.03
3e-08,3001.17,9997.04
4e-08,3001.56,9996.06
5e-08,3001.95,9995.07
6e-08,3002.34,9994.08
7e-08,3002.73,9993.1
8e-08,3003.12,9992.11
9e-08,3003.52,9991.12
1e-07,3003.91,9990.13
1.1e-07,3004.3,9989.14
1.2e-07,3004.69,9988.15
1.3e-07,3005.09,9987.15
1.4e-07,3005.48,9986.16
1.5e-07,3005.87,9985.17
1.6e-07,3006.27,9984.18
1.7e-07,3006.66,9983.18
1.8e-07,3007.05,9982.19
1.9e-07,3007.45,9981.19
2e-07,3007.84,9980.2
2.1e-07,3008.24,9979.2
2.2e-07,3008.63,9978.2
2.3e-07,3009.03,9977.2
2.4e-07,3009.42,9976.21
2.5e-07,3009.82,9975.21
2.6e-07,3010.21,9974.21
2.7e-07,3010.61,9973.21
2.8e-07,3011.01,9972.21
2.9e-07,3011.4,9971.21
3e-07,3011.8,9970.2
3.1e-07,3012.2,9969.2
3.2e-07,3012.6,9968.2
3.3e-07,3012.99,9967.2
3.4e-07,3013.39,9966.19
3.5e-07,3013.79,9965.19
3.6e-07,3014.19,9964.18
3.7e-07,3014.59,9963.18
3.8e-07,3014.99,9962.17
3.9e-07,3015.38,9961.16
4e-07,3015.78,9960.15
4.1e-07,3016.18,9959.14
4.2e-07,3016.58,9958.14
4.3e-07,3016.98,9957.13
4.4e-07,3017.38,9956.12
4.5e-07,3017.78,9955.1
4.6e-07,3018.18,9954.09
4.7e-07,3018.59,9953.08
4.8e-07,3018.99,9952.07
4.9e-07,3019.39,9951.05
5e-07,3019.79,9950.04
5.1e-07,3020.19,9949.03
5.2e-07,3020.59,9948.01
5.3e-07,3021.0,9947.0
5.4e-07,3021.4,9945.98
5.5e-07,3021.8,9944.96
5.6e-07,3022.21,9943.94
5.7e-07,3022.61,9942.93
5.8e-07,3023.01,9941.91
5.9e-07,3023.42,9940.89
6e-07,3023.82,9939.87
6.1e-07,3024.23,9938.85
6.2e-07,3024.63,9937.83
6.3e-07,3025.03,9936.8
6.4e-07,3025.44,9935.78
6.5e-07,3025.85,9934.76
6.6e-07,3026.25,9933.73
6.7e-07,3026.66,9932.71
6.8e-07,3027.06,9931.68
6.9e-07,3027.47,9930.66
7e-07,3027.88,9929.63
7.1e-07,3028.28,9928.6
7.2e-07,3028.69,9927.58
7.3e-07,3029.1,9926.55
7.4e-07,3029.5,9925.52
7.5e-07,3029.91,9924.49
7.6e-07,3030.32,9923.46
7.7e-07,3030.73,9922.43
7.8e-07,3031.14,9921.4
7.9e-07,3031.55,9920.37
8e-07,3031.96,9919.33
8.1e-07,3032.36,9918.3
8.2e-07,3032.77,9917.27
8.3e-07,3033.18,9916.23
8.4e-07,3033.59,9915.2
8.5e-07,3034.0,9914.16
8.6e-07,3034.42,9913.12
8.7e-07,3034.83,9912.09
8.8e-07,3035.24,9911.05
8.9e-07,3035.65,9910.01
9e-07,3036.06,9908.97
9.1e-07,3036.47,9907.93
9.2e-07,3036.88,9906.89
9.3e-07,3037.3,9905.85
9.4e-07,3037.71,9904.81
9.5e-07,3038.12,9903.77
9.6e-07,3038.54,9902.73
9.7e-07,3038.95,9901.68
9.8e-07,3039.36,9900.64
9.9e-07,3039.78,9899.59
1e-06,3040.19,9898.55
1.01e-06,3040.6,9897.5
1.02e-06,3041.02,9896.45
1.03e-06,3041.43,9895.41
1.04e-06,3041.85,9894.36
1.05e-06,3042.26,9893.31
1.06e-06,3042.68,9892.26
1.07e-06,3043.1,9891.21
1.08e-06,3043.51,9890.16
1.09e-06,3043.93,9889.11
1.1e-06,3044.35,9888.06
1.11e-06,3044.76,9887.01
1.12e-06,3045.18,9885.95
1.13e-06,3045.6,9884.9
1.14e-06,3046.01,9883.84
1.15e-06,3046.43,9882.79
1.16e-06,3046.85,9881.73
1.17e-06,3047.27,9880.68
1.18e-06,3047.69,9879.62
1.19e-06,3048.11,9878.56
1.2e-06,3048.53,9877.5
1.21e-06,3048.95,9876.45
1.22e-06,3049.37,9875.39
1.23e-06,3049.79,9874.33
1.24e-06,3050.21,9873.26
1.25e-06,3050.63,9872.2
1.26e-06,3051.05,9871.14
1.27e-06,3051.47,9870.08
1.28e-06,3051.89,9869.01
1.29e-06,3052.31,9867.95
1.3e-06,3052.73,9866.89
1.31e-06,3053.15,9865.82
1.32e-06,3053.58,9864.75
1.33e-06,3054.0,9863.69
1.34e-06,3054.42,9862.62
1.35e-06,3054.85,9861.55
1.36e-06,3055.27,9860.48
1.37e-06,3055.69,9859.41
1.38e-06,3056.12,9858.34
1.39e-06,3056.54,9857.27
1.4e-06,3056.97,9856.2
1.41e-06,3057.39,9855.13
1.42e-06,3057.82,9854.06
1.43e-06,3058.24,9852.98
1.44e-06,3058.67,9851.91
1.45e-06,3059.09,9850.83
1.46e-06,3059.52,9849.76
1.47e-06,3059.94,9848.68
1.48e-06,3060.37,9847.6
1.49e-06,3060.8,9846.53
1.5e-06,3061.22,9845.45
1.51e-06,3061.65,9844.37
1.52e-06,3062.08,9843.29
1.53e-06,3062.51,9842.21
1.54e-06,3062.94,9841.13
1.55e-06,3063.36,9840.05
1.56e-06,3063.79,9838.96
1.57e-06,3064.22,9837.88
1.58e-06,3064.65,9836.8
1.59e-06,3065.08,9835.71
1.6e-06,3065.51,9834.63
1.61e-06,3065.94,9833.54
1.62e-06,3066.37,9832.46
1.63e-06,3066.8,9831.37
1.64e-06,3067.23,9830.28
1.65e-06,3067.66,9829.19
1.66e-06,3068.09,9828.11
1.67e-06,3068.53,9827.02
1.68e-06,3068.96,9825.93
1.69e-06,3069.39,9824.83
1.7e-06,3069.82,9823.74
1.71e-06,3070.26,9822.65
1.72e-06,3070.69,9821.56
1.73e-06,3071.12,9820.46
1.74e-06,3071.55,9819.37
1.75e-06,3071.99,9818.27
1.76e-06,3072.42,9817.18
1.77e-06,3072.86,9816.08
1.78e-06,3073.29,9814.98
1.79e-06,3073.73,9813.89
1.8e-06,3074.16,9812.79
1.81e-06,3074.6,9811.69
1.82e-06,3075.03,9810.59
1.83e-06,3075.47,9809.49
1.84e-06,3075.91,9808.39
1.85e-06,3076.34,9807.28
1.86e-06,3076.78,9806.18
1.87e-06,3077.22,9805.08
1.88e-06,3077.65,9803.97
1.89e-06,3078.09,9802.87
1.9e-06,3078.53,9801.76
1.91e-06,3078.97,9800.66
1.92e-06,3079.41,9799.55
1.93e-06,3079.84,9798.44
1.94e-06,3080.28,9797.33
1.95e-06,3080.72,9796.22
1.96e-06,3081.16,9795.11
1.97e-06,3081.6,9794.0
1.98e-06,3082.04,9792.89
1.99e-06,3082.48,9791.78
2e-06,3082.92,9790.67
2.01e-06,3083.36,9789.55
2.02e-06,3083.8,9788.44
2.03e-06,3084.25,9787.33
2.04e-06,3084.69,9786.21
2.05e-06,3085.13,9785.09
2.06e-06,3085.57,9783.98
2.07e-06,3086.02,9782.86
2.08e-06,3086.46,9781.74
2.09e-06,3086.9,9780.62
2.1e-06,3087.34,9779.5
2.11e-06,3087.79,9778.38
2.12e-06,3088.23,9777.26
2.13e-06,3088.68,9776.14
2.14e-06,3089.12,9775.02
2.15e-06,3089.57,9773.89
2.16e-06,3090.01,9772.77
2.17e-06,3090.46,9771.64
2.18e-06,3090.9,9770.52
2.19e-06,3091.35,9769.39
2.2e-06,3091.79,9768.27
2.21e-06,3092.24,9767.14
2.22e-06,3092.69,9766.01
2.23e-06,3093.14,9764.88
2.24e-06,3093.58,9763.75
2.25e-06,3094.03,9762.62
2.26e-06,3094.48,9761.49
2.27e-06,3094.93,9760.36
2.28e-06,3095.38,9759.23
2.29e-06,3095.82,9758.09
2.3e-06,3096.27,9756.96
2.31e-06,3096.72,9755.82
2.32e-06,3097.17,9754.69
2.33e-06,3097.62,9753.55
2.34e-06,3098.07,9752.42
2.35e-06,3098.52,9751.28
2.36e-06,3098.97,9750.14
2.37e-06,3099.43,9749.0
2.38e-06,3099.88,9747.86
2.39e-06,3100.33,9746.72
2.4e-06,3100.78,9745.58
2.41e-06,3101.23,9744.44
2.42e-06,3101.69,9743.29
2.43e-06,3102.14,9742.15
2.44e-06,3102.59,9741.01
2.45e-06,3103.04,9739.86
2.46e-06,3103.5,9738.72
2.47e-06,3103.95,9737.57
2.48e-06,3104.41,9736.42
2.49e-06,3104.86,9735.27
2.5e-06,3105.32,9734.13
2.51e-06,3105.77,9732.98
2.52e-06,3106.23,9731.83
2.53e-06,3106.68,9730.67
2.54e-06,3107.14,9729.52
2.55e-06,3107.59,9728.37
2.56e-06,3108.05,9727.22
2.57e-06,3108.51,9726.06
2.58e-06,3108.97,9724.91
2.59e-06,3109.42,9723.75
2.6e-06,3109.88,9722.6
2.61e-06,3110.34,9721.44
2.62e-06,3110.8,9720.28
2.63e-06,3111.26,9719.13
2.64e-06,3111.72,9717.97
2.65e-06,3112.17,9716.81
2.66e-06,3112.63,9715.65
2.67e-06,3113.09,9714.48
2.68e-06,3113.55,9713.32
2.69e-06,3114.01,9712.16
2.7e-06,3114.48,9711.0
2.71e-06,3114.94,9709.83
2.72e-06,3115.4,9708.67
2.73e-06,3115.86,9707.5
2.74e-06,3116.32,9706.33
2.75e-06,3116.78,9705.17
2.76e-06,3117.25,9704.0
2.77e-06,3117.71,9702.83
2.78e-06,3118.17,9701.66
2.79e-06,3118.64,9700.49
2.8e-06,3119.1,9699.32
2.81e-06,3119.56,9698.15
2.82e-06,3120.03,9696.98
2.83e-06,3120.49,9695.8
2.84e-06,3120.96,9694.63
2.85e-06,3121.42,9693.45
2.86e-06,3121.89,9692.28
2.87e-06,3122.35,9691.1
2.88e-06,3122.82,9689.92
2.89e-06,3123.29,9688.75
2.9e-06,3123.75,9687.57
2.91e-06,3124.22,9686.39
2.92e-06,3124.69,9685.21
2.93e-06,3125.16,9684.03
2.94e-06,3125.62,9682.84
2.95e-06,3126.09,9681.66
2.96e-06,3126.56,9680.48
2.97e-06,3127.03,9679.29
2.98e-06,3127.5,9678.11
2.99e-06,3127.97,9676.92
3e-06,3128.44,9675.74
3.01e-06,3128.91,9674.55
3.02e-06,3129.38,9673.36
3.03e-06,3129.85,9672.17
3.04e-06,3130.32,9670.98
3.05e-06,3130.79,9669.79
3.06e-06,3131.26,9668.6
3.07e-06,3131.73,9667.41
3.08e-06,3132.21,9666.22
3.09e-06,3132.68,9665.03
3.1e-06,3133.15,9663.83
3.11e-06,3133.63,9662.64
3.12e-06,3134.1,9661.44
3.13e-06,3134.57,9660.24
3.14e-06,3135.05,9659.05
3.15e-06,3135.52,9657.85
3.16e-06,3136.0,9656.65
3.17e-06,3136.47,9655.45
3.18e-06,3136.95,9654.25
3.19e-06,3137.42,9653.05
3.2e-06,3137.9,9651.85
3.21e-06,3138.37,9650.64
3.22e-06,3138.85,9649.44
3.23e-06,3139.33,9648.24
3.24e-06,3139.8,9647.03
3.25e-06,3140.28,9645.82
3.26e-06,3140.76,9644.62
3.27e-06,3141.24,9643.41
3.28e-06,3141.72,9642.2
3.29e-06,3142.2,9640.99
3.3e-06,3142.67,9639.78
3.31e-06,3143.15,9638.57
3.32e-06,3143.63,9637.36
3.33e-06,3144.11,9636.15
3.34e-06,3144.59,9634.94
3.35e-06,3145.07,9633.72
3.36e-06,3145.56,9632.51
3.37e-06,3146.04,9631.29
3.38e-06,3146.52,9630.07
3.39e-06,3147.0,9628.86
3.4e-06,3147.48,9627.64
3.41e-06,3147.96,9626.42
3.42e-06,3148.45,9625.2
3.43e-06,3148.93,9623.98
3.44e-06,3149.41,9622.76
3.45e-06,3149.9,9621.54
3.46e-06,3150.38,9620.32
3.47e-06,3150.87,9619.09
3.48e-06,3151.35,9617.87
3.49e-06,3151.84,9616.64
3.5e-06,3152.32,9615.42
3.51e-06,3152.81,9614.19
3.52e-06,3153.29,9612.96
3.53e-06,3153.78,9611.73
3.54e-06,3154.27,9610.5
3.55e-06,3154.75,9609.27
3.56e-06,3155.24,9608.04
3.57e-06,3155.73,9606.81
3.58e-06,3156.22,9605.58
3.59e-06,3156.7,9604.35
3.6e-06,3157.19,9603.11
3.61e-06,3157.68,9601.88
3.62e-06,3158.17,9600.64
3.63e-06,3158.66,9599.4
3.64e-06,3159.15,9598.17
3.65e-06,3159.64,9596.93
3.66e-06,3160.13,9595.69
3.67e-06,3160.62,9594.45
3.68e-06,3161.11,9593.21
3.69e-06,3161.61,9591.97
3.7e-06,3162.1,9590.73
3.71e-06,3162.59,9589.48
3.72e-06,3163.08,9588.24
3.73e-06,3163.57,9586.99
3.74e-06,3164.07,9585.75
3.75e-06,3164.56,9584.5
3.76e-06,3165.06,9583.25
3.77e-06,3165.55,9582.01
3.78e-06,3166.04,9580.76
3.79e-06,3166.54,9579.51
3.8e-06,3167.03,9578.26
3.81e-06,3167.53,9577.01
3.82e-06,3168.02,9575.75
3.83e-06,3168.52,9574.5
3.84e-06,3169.02,9573.25
3.85e-06,3169.51,9571.99
3.86e-06,3170.01,9570.74
3.87e-06,3170.51,9569.48
3.88e-06,3171.01,9568.22
3.89e-06,3171.5,9566.96
3.9e-06,3172.0,9565.71
3.91e-06,3172.5,9564.45
3.92e-06,3173.0,9563.18
3.93e-06,3173.5,9561.92
3.94e-06,3174.0,9560.66
3.95e-06,3174.5,9559.4
3.96e-06,3175.0,9558.13
3.97e-06,3175.5,9556.87
3.98e-06,3176.0,9555.6
3.99e-06,3176.5,9554.34
4e-06,3177.01,9553.07
4.01e-06,3177.51,9551.8
4.02e-06,3178.01,9550.53
4.03e-06,3178.51,9549.26
4.04e-06,3179.02,9547.99
4.05e-06,3179.52,9546.72
4.06e-06,3180.02,9545.45
4.07e-06,3180.53,9544.17
4.08e-06,3181.03,9542.9
4.09e-06,3181.54,9541.62
4.1e-06,3182.04,9540.35
4.11e-06,3182.55,9539.07
4.12e-06,3183.05,9537.79
4.13e-06,3183.56,9536.51
4.14e-06,3184.06,9535.24
4.15e-06,3184.57,9533.96
4.16e-06,3185.08,9532.67
4.17e-06,3185.59,9531.39
4.18e-06,3186.09,9530.11
4.19e-06,3186.6,9528.83
4.2e-06,3187.11,9527.54
4.21e-06,3187.62,9526.26
4.22e-06,3188.13,9524.97
4.23e-06,3188.64,9523.68
4.24e-06,3189.15,9522.39
4.25e-06,3189.66,9521.1
4.26e-06,3190.17,9519.82
4.27e-06,3190.68,9518.52
4.28e-06,3191.19,9517.23
4.29e-06,3191.7,9515.94
4.3e-06,3192.21,9514.65
4.31e-06,3192.73,9513.35
4.32e-06,3193.24,9512.06
4.33e-06,3193.75,9510.76
4.34e-06,3194.27,9509.47
4.35e-06,3194.78,9508.17
4.36e-06,3195.29,9506.87
4.37e-06,3195.81,9505.57
4.38e-06,3196.32,9504.27
4.39e-06,3196.84,9502.97
4.4e-06,3197.35,9501.67
4.41e-06,3197.87,9500.36
4.42e-06,3198.38,9499.06
4.43e-06,3198.9,9497.76
4.44e-06,3199.42,9496.45
4.45e-06,3199.93,9495.14
4.46e-06,3200.45,9493.84
4.47e-06,3200.97,9492.53
4.48e-06,3201.49,9491.22
4.49e-06,3202.01,9489.91
4.5e-06,3202.53,9488.6
4.51e-06,3203.04,9487.29
4.52e-06,3203.56,9485.97
4.53e-06,3204.08,9484.66
4.54e-06,3204.6,9483.35
4.55e-06,3205.13,9482.03
4.56e-06,3205.65,9480.71
4.57e-06,3206.17,9479.4
4.58e-06,3206.69,9478.08
4.59e-06,3207.21,9476.76
4.6e-06,3207.73,9475.44
4.61e-06,3208.26,9474.12
4.62e-06,3208.78,9472.8
4.63e-06,3209.3,9471.48
4.64e-06,3209.83,9470.15
4.65e-06,3210.35,9468.83
4.66e-06,3210.88,9467.5
4.67e-06,3211.4,9466.18
4.68e-06,3211.93,9464.85
4.69e-06,3212.45,9463.52
4.7e-06,3212.98,9462.19
4.71e-06,3213.5,9460.86
4.72e-06,3214.03,9459.53
4.73e-06,3214.56,9458.2
4.74e-06,3215.08,9456.87
4.75e-06,3215.61,9455.53
4.76e-06,3216.14,9454.2
4.77e-06,3216.67,9452.86
4.78e-06,3217.2,9451.53
4.79e-06,3217.73,9450.19
4.8e-06,3218.26,9448.85
4.81e-06,3218.79,9447.52
4.82e-06,3219.32,9446.18
4.83e-06,3219.85,9444.83
4.84e-06,3220.38,9443.49
4.85e-06,3220.91,9442.15
4.86e-06,3221.44,9440.81
4.87e-06,3221.97,9439.46
4.88e-06,3222.51,9438.12
4.89e-06,3223.04,9436.77
4.9e-06,3223.57,9435.42
4.91e-06,3224.1,9434.08
4.92e-06,3224.64,9432.73
4.93e-06,3225.17,9431.38
4.94e-06,3225.71,9430.03
4.95e-06,3226.24,9428.67
4.96e-06,3226.78,9427.32
4.97e-06,3227.31,9425.97
4.98e-06,3227.85,9424.61
4.99e-06,3228.39,9423.26
5e-06,3228.92,9421.9
5.01e-06,3229.46,9420.54
5.02e-06,3230.0,9419.19
5.03e-06,3230.54,9417.83
5.04e-06,3231.07,9416.47
5.05e-06,3231.61,9415.11
5.06e-06,3232.15,9413.74
5.07e-06,3232.69,9412.38
5.08e-06,3233.23,9411.02
5.09e-06,3233.77,9409.65
5.1e-06,3234.31,9408.29
5.11e-06,3234.85,9406.92
5.12e-06,3235.39,9405.55
5.13e-06,3235.94,9404.18
5.14e-06,3236.48,9402.81
5.15e-06,3237.02,9401.44
5.16e-06,3237.56,9400.07
5.17e-06,3238.11,9398.7
5.18e-06,3238.65,9397.33
5.19e-06,3239.19,9395.95
5.2e-06,3239.74,9394.58
5.21e-06,3240.28,9393.2
5.22e-06,3240.83,9391.82
5.23e-06,3241.37,9390.45
5.24e-06,3241.92,9389.07
5.25e-06,3242.46,9387.69
5.26e-06,3243.01,9386.31
5.27e-06,3243.56,9384.92
5.28e-06,3244.1,9383.54
5.29e-06,3244.65,9382.16
5.3e-06,3245.2,9380.77
5.31e-06,3245.75,9379.39
5.32e-06,3246.3,9378.0
5.33e-06,3246.85,9376.61
5.34e-06,3247.4,9375.22
5.35e-06,3247.95,9373.83
5.36e-06,3248.5,9372.44
5.37e-06,3249.05,9371.05
5.38e-06,3249.6,9369.66
5.39e-06,3250.15,9368.27
5.4e-06,3250.7,9366.87
5.41e-06,3251.25,9365.48
5.42e-06,3251.8,9364.08
5.43e-06,3252.36,9362.68
5.44e-06,3252.91,9361.28
5.45e-06,3253.46,9359.89
5.46e-06,3254.02,9358.49
5.47e-06,3254.57,9357.08
5.48e-06,3255.13,9355.68
5.49e-06,3255.68,9354.28
5.5e-06,3256.24,9352.87
5.51e-06,3256.79,9351.47
5.52e-06,3257.35,9350.06
5.53e-06,3257.91,9348.66
5.54e-06,3258.47,9347.25
5.55e-06,3259.02,9345.84
5.56e-06,3259.58,9344.43
5.57e-06,3260.14,9343.02
5.58e-06,3260.7,9341.61
5.59e-06,3261.26,9340.19
5.6e-06,3261.82,9338.78
5.61e-06,3262.38,9337.36
5.62e-06,3262.94,9335.95
5.63e-06,3263.5,9334.53
5.64e-06,3264.06,9333.11
5.65e-06,3264.62,9331.7
5.66e-06,3265.18,9330.28
5.67e-06,3265.74,9328.85
5.68e-06,3266.31,9327.43
5.69e-06,3266.87,9326.01
5.7e-06,3267.43,9324.59
5.71e-06,3268.0,9323.16
5.72e-06,3268.56,9321.74
5.73e-06,3269.12,9320.31
5.74e-06,3269.69,9318.88
5.75e-06,3270.25,9317.45
5.76e-06,3270.82,9316.02
5.77e-06,3271.39,9314.59
5.78e-06,3271.95,9313.16
5.79e-06,3272.52,9311.73
5.8e-06,3273.09,9310.29
5.81e-06,3273.65,9308.86
5.82e-06,3274.22,9307.42
5.83e-06,3274.79,9305.99
5.84e-06,3275.36,9304.55
5.85e-06,3275.93,9303.11
5.86e-06,3276.5,9301.67
5.87e-06,3277.07,9300.23
5.88e-06,3277.64,9298.79
5.89e-06,3278.21,9297.34
5.9e-06,3278.78,9295.9
5.91e-06,3279.35,9294.46
5.92e-06,3279.93,9293.01
5.93e-06,3280.5,9291.56
5.94e-06,3281.07,9290.12
5.95e-06,3281.64,9288.67
5.96e-06,3282.22,9287.22
5.97e-06,3282.79,9285.77
5.98e-06,3283.37,9284.31
5.99e-06,3283.94,9282.86
6e-06,3284.52,9281.41
6.01e-06,3285.09,9279.95
6.02e-06,3285.67,9278.5
6.03e-06,3286.24,9277.04
6.04e-06,3286.82,9275.58
6.05e-06,3287.4,9274.12
6.06e-06,3287.98,9272.66
6.07e-06,3288.55,9271.2
6.08e-06,3289.13,9269.74
6.09e-06,3289.71,9268.27
6.1e-06,3290.29,9266.81
6.11e-06,3290.87,9265.34
6.12e-06,3291.45,9263.88
6.13e-06,3292.03,9262.41
6.14e-06,3292.61,9260.94
6.15e-06,3293.19,9259.47
6.16e-06,3293.78,9258.0
6.17e-06,3294.36,9256.53
6.18e-06,3294.94,9255.06
6.19e-06,3295.52,9253.58
6.2e-06,3296.11,9252.11
6.21e-06,3296.69,9250.63
6.22e-06,3297.27,9249.16
6.23e-06,3297.86,9247.68
6.24e-06,3298.44,9246.2
6.25e-06,3299.03,9244.72
6.26e-06,3299.62,9243.24
6.27e-06,3300.2,9241.76
6.28e-06,3300.79,9240.28
6.29e-06,3301.37,9238.79
6.3e-06,3301.96,9237.31
6.31e-06,3302.55,9235.82
6.32e-06,3303.14,9234.33
6.33e-06,3303.73,9232.84
6.34e-06,3304.32,9231.36
6.35e-06,3304.91,9229.86
6.36e-06,3305.5,9228.37
6.37e-06,3306.09,9226.88
6.38e-06,3306.68,9225.39
6.39e-06,3307.27,9223.89
6.4e-06,3307.86,9222.4
6.41e-06,3308.45,9220.9
6.42e-06,3309.04,9219.4
6.43e-06,3309.64,9217.9
6.44e-06,3310.23,9216.4
6.45e-06,3310.82,9214.9
6.46e-06,3311.42,9213.4
6.47e-06,3312.01,9211.9
6.48e-06,3312.61,9210.39
6.49e-06,3313.2,9208.89
6.5e-06,3313.8,9207.38
6.51e-06,3314.4,9205.88
6.52e-06,3314.99,9204.37
6.53e-06,3315.59,9202.86
6.54e-06,3316.19,9201.35
6.55e-06,3316.78,9199.84
6.56e-06,3317.38,9198.32
6.57e-06,3317.98,9196.81
6.58e-06,3318.58,9195.29
6.59e-06,3319.18,9193.78
6.6e-06,3319.78,9192.26
6.61e-06,3320.38,9190.74
6.62e-06,3320.98,9189.22
6.63e-06,3321.58,9187.7
6.64e-06,3322.19,9186.18
6.65e-06,3322.79,9184.66
6.66e-06,3323.39,9183.14
6.67e-06,3323.99,9181.61
6.68e-06,3324.6,9180.09
6.69e-06,3325.2,9178.56
6.7e-06,3325.8,9177.03
6.71e-06,3326.41,9175.5
6.72e-06,3327.01,9173.97
6.73e-06,3327.62,9172.44
6.74e-06,3328.23,9170.91
6.75e-06,3328.83,9169.38
6.76e-06,3329.44,9167.84
6.77e-06,3330.05,9166.31
6.78e-06,3330.65,9164.77
6.79e-06,3331.26,9163.23
6.8e-06,3331.87,9161.69
6.81e-06,3332.48,9160.15
6.82e-06,3333.09,9158.61
6.83e-06,3333.7,9157.07
6.84e-06,3334.31,9155.53
6.85e-06,3334.92,9153.98
6.86e-06,3335.53,9152.44
6.87e-06,3336.14,9150.89
6.88e-06,3336.76,9149.34
6.89e-06,3337.37,9147.79
6.9e-06,3337.98,9146.25
6.91e-06,3338.59,9144.69
6.92e-06,3339.21,9143.14
6.93e-06,3339.82,9141.59
6.94e-06,3340.44,9140.03
6.95e-06,3341.05,9138.48
6.96e-06,3341.67,9136.92
6.97e-06,3342.28,9135.37
6.98e-06,3342.9,9133.81
6.99e-06,3343.52,9132.25
7e-06,3344.13,9130.69
7.01e-06,3344.75,9129.12
7.02e-06,3345.37,9127.56
7.03e-06,3345.99,9126.0
7.04e-06,3346.61,9124.43
7.05e-06,3347.23,9122.86
7.06e-06,3347.85,9121.3
7.07e-06,3348.47,9119.73
7.08e-06,3349.09,9118.16
7.09e-06,3349.71,9116.59
7.1e-06,3350.33,9115.02
7.11e-06,3350.95,9113.44
7.12e-06,3351.58,9111.87
7.13e-06,3352.2,9110.29
7.14e-06,3352.82,9108.72
7.15e-06,3353.45,9107.14
7.16e-06,3354.07,9105.56
7.17e-06,3354.7,9103.98
7.18e-06,3355.32,9102.4
7.19e-06,3355.95,9100.82
7.2e-06,3356.57,9099.23
7.21e-06,3357.2,9097.65
7.22e-06,3357.83,9096.06
7.23e-06,3358.45,9094.48
7.24e-06,3359.08,9092.89
7.25e-06,3359.71,9091.3
7.26e-06,3360.34,9089.71
7.27e-06,3360.97,9088.12
7.28e-06,3361.6,9086.52
7.29e-06,3362.23,9084.93
7.3e-06,3362.86,9083.34
7.31e-06,3363.49,9081.74
7.32e-06,3364.12,9080.14
7.33e-06,3364.75,9078.54
7.34e-06,3365.39,9076.94
7.35e-06,3366.02,9075.34
7.36e-06,3366.65,9073.74
7.37e-06,3367.29,9072.14
7.38e-06,3367.92,9070.54
7.39e-06,3368.56,9068.93
7.4e-06,3369.19,9067.32
7.41e-06,3369.83,9065.72
7.42e-06,3370.46,9064.11
7.43e-06,3371.1,9062.5
7.44e-06,3371.74,9060.89
7.45e-06,3372.37,9059.27
7.46e-06,3373.01,9057.66
7.47e-06,3373.65,9056.05
7.48e-06,3374.29,9054.43
7.49e-06,3374.93,9052.81
7.5e-06,3375.57,9051.2
7.51e-06,3376.21,9049.58
7.52e-06,3376.85,9047.96
7.53e-06,3377.49,9046.34
7.54e-06,3378.13,9044.71
7.55e-06,3378.77,9043.09
7.56e-06,3379.42,9041.46
7.57e-06,3380.06,9039.84
7.58e-06,3380.7,9038.21
7.59e-06,3381.35,9036.58
7.6e-06,3381.99,9034.95
7.61e-06,3382.64,9033.32
7.62e-06,3383.28,9031.69
7.63e-06,3383.93,9030.06
7.64e-06,3384.57,9028.42
7.65e-06,3385.22,9026.79
7.66e-06,3385.87,9025.15
7.67e-06,3386.51,9023.51
7.68e-06,3387.16,9021.88
7.69e-06,3387.81,9020.24
7.7e-06,3388.46,9018.59
7.71e-06,3389.11,9016.95
7.72e-06,3389.76,9015.31
7.73e-06,3390.41,9013.66
7.74e-06,3391.06,9012.02
7.75e-06,3391.71,9010.37
7.76e-06,3392.36,9008.72
7.77e-06,3393.02,9007.07
7.78e-06,3393.67,9005.42
7.79e-06,3394.32,9003.77
7.8e-06,3394.98,9002.11
7.81e-06,3395.63,9000.46
7.82e-06,3396.28,8998.8
7.83e-06,3396.94,8997.15
7.84e-06,3397.59,8995.49
7.85e-06,3398.25,8993.83
7.86e-06,3398.91,8992.17
7.87e-06,3399.56,8990.51
7.88e-06,3400.22,8988.84
7.89e-06,3400.88,8987.18
7.9e-06,3401.54,8985.51
7.91e-06,3402.2,8983.85
7.92e-06,3402.86,8982.18
7.93e-06,3403.52,8980.51
7.94e-06,3404.18,8978.84
7.95e-06,3404.84,8977.17
7.96e-06,3405.5,8975.5
7.97e-06,3406.16,8973.82
7.98e-06,3406.82,8972.15
7.99e-06,3407.48,8970.47
8e-06,3408.15,8968.79
8.01e-06,3408.81,8967.12
8.02e-06,3409.48,8965.44
8.03e-06,3410.14,8963.75
8.04e-06,3410.81,8962.07
8.05e-06,3411.47,8960.39
8.06e-06,3412.14,8958.7
8.07e-06,3412.8,8957.02
8.08e-06,3413.47,8955.33
8.09e-06,3414.14,8953.64
8.1e-06,3414.81,8951.95
8.11e-06,3415.47,8950.26
8.12e-06,3416.14,8948.57
