Time (s),$ T_{tr} $ (nexaFoam)_Temp,$ T_{vib} $ (nexaFoam)_Temp
0.0,10000.0,10000.0
1e-09,9993.41,1041.75
2e-09,9986.43,1080.61
3e-09,9979.38,1117.66
4e-09,9972.33,1152.64
5e-09,9965.32,1186.16
6e-09,9958.35,1218.41
7e-09,9951.41,1249.54
8e-09,9944.52,1279.68
9e-09,9937.67,1308.92
1e-08,9930.86,1337.57
2e-08,9865.65,1590.03
3e-08,9803.31,1804.47
4e-08,9744.3,1994.94
5e-08,9688.33,2168.19
6e-08,9635.14,2327.93
7e-08,9584.53,2476.58
8e-08,9536.28,2615.88
9e-08,9490.21,2746.95
1e-07,9446.18,2870.82
1.1e-07,9404.52,2988.34
1.2e-07,9364.11,3100.05
1.3e-07,9325.35,3206.49
1.4e-07,9288.12,3308.11
1.5e-07,9252.34,3405.32
1.6e-07,9217.9,3498.43
1.7e-07,9184.73,3587.77
1.8e-07,9152.75,3673.58
1.9e-07,9121.91,3756.1
2e-07,9092.12,3835.56
2.1e-07,9063.34,3912.13
2.2e-07,9035.52,3986.0
2.3e-07,9008.59,4057.31
2.4e-07,8982.53,4126.23
2.5e-07,8957.27,4192.87
2.6e-07,8932.79,4257.36
2.7e-07,8909.05,4319.81
2.8e-07,8886.01,4380.34
2.9e-07,8863.64,4439.02
3e-07,8841.91,4495.96
3.1e-07,8820.79,4551.23
3.2e-07,8800.25,4604.91
3.3e-07,8780.28,4657.08
3.4e-07,8760.84,4707.8
3.5e-07,8741.91,4757.13
3.6e-07,8723.48,4805.14
3.7e-07,8705.52,4851.88
3.8e-07,8688.01,4897.41
3.9e-07,8670.94,4941.76
4e-07,8654.29,4985.0
4.1e-07,8638.05,5027.15
4.2e-07,8622.19,5068.27
4.3e-07,8606.72,5108.4
4.4e-07,8591.6,5147.56
4.5e-07,8576.83,5185.81
4.6e-07,8562.4,5223.16
4.7e-07,8548.29,5259.65
4.8e-07,8534.5,5295.31
4.9e-07,8521.01,5330.16
5e-07,8507.82,5364.25
5.1e-07,8494.91,5397.58
5.2e-07,8482.27,5430.2
5.3e-07,8469.9,5462.11
5.4e-07,8457.79,5493.35
5.5e-07,8445.93,5523.93
5.6e-07,8434.31,5553.87
5.7e-07,8422.93,5583.21
5.8e-07,8411.78,5611.94
5.9e-07,8400.84,5640.1
6e-07,8390.12,5667.69
6.1e-07,8379.61,5694.74
6.2e-07,8369.3,5721.26
6.3e-07,8359.19,5747.27
6.4e-07,8349.27,5772.78
6.5e-07,8339.54,5797.8
6.6e-07,8329.99,5822.36
6.7e-07,8320.61,5846.45
6.8e-07,8311.41,5870.1
6.9e-07,8302.37,5893.31
7e-07,8293.5,5916.1
7.1e-07,8284.78,5938.48
7.2e-07,8276.22,5960.46
7.3e-07,8267.81,5982.04
7.4e-07,8259.54,6003.25
7.5e-07,8251.42,6024.09
7.6e-07,8243.44,6044.56
7.7e-07,8235.59,6064.68
7.8e-07,8227.88,6084.46
7.9e-07,8220.3,6103.91
8e-07,8212.84,6123.02
8.1e-07,8205.51,6141.82
8.2e-07,8198.3,6160.3
8.3e-07,8191.2,6178.48
8.4e-07,8184.22,6196.36
8.5e-07,8177.36,6213.95
8.6e-07,8170.6,6231.25
8.7e-07,8163.95,6248.28
8.8e-07,8157.41,6265.03
8.9e-07,8150.97,6281.52
9e-07,8144.63,6297.75
9.1e-07,8138.39,6313.73
9.2e-07,8132.24,6329.46
9.3e-07,8126.19,6344.94
9.4e-07,8120.23,6360.19
9.5e-07,8114.36,6375.2
9.6e-07,8108.58,6389.98
9.7e-07,8102.89,6404.55
9.8e-07,8097.28,6418.89
9.9e-07,8091.76,6433.02
1e-06,8086.32,6446.94
1.01e-06,8080.95,6460.65
1.02e-06,8075.67,6474.16
1.03e-06,8070.46,6487.47
1.04e-06,8065.33,6500.6
1.05e-06,8060.27,6513.53
1.06e-06,8055.28,6526.27
1.07e-06,8050.37,6538.83
1.08e-06,8045.52,6551.22
1.09e-06,8040.74,6563.42
1.1e-06,8036.03,6575.46
1.11e-06,8031.39,6587.33
1.12e-06,8026.81,6599.03
1.13e-06,8022.29,6610.56
1.14e-06,8017.83,6621.94
1.15e-06,8013.44,6633.16
1.16e-06,8009.11,6644.23
1.17e-06,8004.83,6655.15
1.18e-06,8000.62,6665.91
1.19e-06,7996.45,6676.54
1.2e-06,7992.35,6687.02
1.21e-06,7988.3,6697.35
1.22e-06,7984.3,6707.55
1.23e-06,7980.36,6717.62
1.24e-06,7976.47,6727.55
1.25e-06,7972.63,6737.35
1.26e-06,7968.84,6747.02
1.27e-06,7965.1,6756.57
1.28e-06,7961.41,6765.99
1.29e-06,7957.77,6775.28
1.3e-06,7954.17,6784.46
1.31e-06,7950.62,6793.52
1.32e-06,7947.11,6802.46
1.33e-06,7943.65,6811.29
1.34e-06,7940.24,6820.0
1.35e-06,7936.86,6828.61
1.36e-06,7933.53,6837.11
1.37e-06,7930.24,6845.49
1.38e-06,7927.0,6853.78
1.39e-06,7923.79,6861.96
1.4e-06,7920.62,6870.03
1.41e-06,7917.49,6878.01
1.42e-06,7914.41,6885.89
1.43e-06,7911.35,6893.67
1.44e-06,7908.34,6901.35
1.45e-06,7905.36,6908.94
1.46e-06,7902.42,6916.44
1.47e-06,7899.52,6923.85
1.48e-06,7896.65,6931.16
1.49e-06,7893.81,6938.39
1.5e-06,7891.01,6945.53
1.51e-06,7888.24,6952.59
1.52e-06,7885.51,6959.55
1.53e-06,7882.81,6966.44
1.54e-06,7880.14,6973.24
1.55e-06,7877.5,6979.97
1.56e-06,7874.9,6986.61
1.57e-06,7872.32,6993.17
1.58e-06,7869.77,6999.66
1.59e-06,7867.26,7006.07
1.6e-06,7864.77,7012.4
1.61e-06,7862.32,7018.67
1.62e-06,7859.89,7024.85
1.63e-06,7857.49,7030.97
1.64e-06,7855.12,7037.01
1.65e-06,7852.77,7042.99
1.66e-06,7850.45,7048.89
1.67e-06,7848.16,7054.73
1.68e-06,7845.9,7060.5
1.69e-06,7843.66,7066.2
1.7e-06,7841.44,7071.84
1.71e-06,7839.25,7077.42
1.72e-06,7837.09,7082.93
1.73e-06,7834.95,7088.38
1.74e-06,7832.84,7093.76
1.75e-06,7830.75,7099.09
1.76e-06,7828.68,7104.36
1.77e-06,7826.63,7109.56
1.78e-06,7824.61,7114.71
1.79e-06,7822.61,7119.8
1.8e-06,7820.64,7124.84
1.81e-06,7818.68,7129.81
1.82e-06,7816.75,7134.74
1.83e-06,7814.84,7139.6
1.84e-06,7812.95,7144.42
1.85e-06,7811.08,7149.18
1.86e-06,7809.23,7153.88
1.87e-06,7807.4,7158.54
1.88e-06,7805.59,7163.15
1.89e-06,7803.8,7167.7
1.9e-06,7802.03,7172.21
1.91e-06,7800.28,7176.66
1.92e-06,7798.55,7181.07
1.93e-06,7796.84,7185.43
1.94e-06,7795.15,7189.74
1.95e-06,7793.47,7194.0
1.96e-06,7791.82,7198.22
1.97e-06,7790.18,7202.4
1.98e-06,7788.55,7206.52
1.99e-06,7786.95,7210.61
2e-06,7785.36,7214.65
2.01e-06,7783.79,7218.65
2.02e-06,7782.24,7222.6
2.03e-06,7780.7,7226.51
2.04e-06,7779.18,7230.38
2.05e-06,7777.68,7234.21
2.06e-06,7776.19,7238.0
2.07e-06,7774.72,7241.75
2.08e-06,7773.26,7245.46
2.09e-06,7771.82,7249.13
2.1e-06,7770.39,7252.76
2.11e-06,7768.98,7256.35
2.12e-06,7767.58,7259.9
2.13e-06,7766.2,7263.42
2.14e-06,7764.83,7266.9
2.15e-06,7763.48,7270.35
2.16e-06,7762.14,7273.75
2.17e-06,7760.81,7277.13
2.18e-06,7759.5,7280.46
2.19e-06,7758.2,7283.77
2.2e-06,7756.92,7287.04
2.21e-06,7755.65,7290.27
2.22e-06,7754.39,7293.47
2.23e-06,7753.15,7296.64
2.24e-06,7751.91,7299.78
2.25e-06,7750.69,7302.88
2.26e-06,7749.49,7305.95
2.27e-06,7748.29,7308.99
2.28e-06,7747.11,7312.0
2.29e-06,7745.94,7314.97
2.3e-06,7744.78,7317.92
2.31e-06,7743.63,7320.84
2.32e-06,7742.5,7323.73
2.33e-06,7741.38,7326.58
2.34e-06,7740.26,7329.41
2.35e-06,7739.16,7332.21
2.36e-06,7738.07,7334.98
2.37e-06,7737.0,7337.73
2.38e-06,7735.93,7340.44
2.39e-06,7734.87,7343.13
2.4e-06,7733.83,7345.79
2.41e-06,7732.79,7348.43
2.42e-06,7731.77,7351.03
2.43e-06,7730.75,7353.61
2.44e-06,7729.75,7356.17
2.45e-06,7728.75,7358.7
2.46e-06,7727.77,7361.2
2.47e-06,7726.79,7363.68
2.48e-06,7725.83,7366.14
2.49e-06,7724.87,7368.57
2.5e-06,7723.93,7370.97
2.51e-06,7722.99,7373.35
2.52e-06,7722.06,7375.71
2.53e-06,7721.15,7378.05
2.54e-06,7720.24,7380.36
2.55e-06,7719.34,7382.64
2.56e-06,7718.45,7384.91
2.57e-06,7717.57,7387.15
2.58e-06,7716.69,7389.37
2.59e-06,7715.83,7391.57
2.6e-06,7714.97,7393.75
2.61e-06,7714.12,7395.91
2.62e-06,7713.29,7398.04
2.63e-06,7712.45,7400.15
2.64e-06,7711.63,7402.25
2.65e-06,7710.82,7404.32
2.66e-06,7710.01,7406.37
2.67e-06,7709.21,7408.4
2.68e-06,7708.42,7410.41
2.69e-06,7707.64,7412.4
2.7e-06,7706.86,7414.38
2.71e-06,7706.09,7416.33
2.72e-06,7705.33,7418.26
2.73e-06,7704.58,7420.18
2.74e-06,7703.83,7422.07
2.75e-06,7703.1,7423.95
2.76e-06,7702.36,7425.81
2.77e-06,7701.64,7427.65
2.78e-06,7700.92,7429.48
2.79e-06,7700.21,7431.28
2.8e-06,7699.51,7433.07
2.81e-06,7698.81,7434.84
2.82e-06,7698.12,7436.6
2.83e-06,7697.44,7438.33
2.84e-06,7696.76,7440.05
2.85e-06,7696.09,7441.76
2.86e-06,7695.43,7443.44
2.87e-06,7694.77,7445.12
2.88e-06,7694.12,7446.77
2.89e-06,7693.48,7448.41
2.9e-06,7692.84,7450.03
2.91e-06,7692.21,7451.64
2.92e-06,7691.58,7453.23
2.93e-06,7690.96,7454.81
2.94e-06,7690.35,7456.37
2.95e-06,7689.74,7457.92
2.96e-06,7689.14,7459.45
2.97e-06,7688.54,7460.97
2.98e-06,7687.95,7462.47
2.99e-06,7687.36,7463.96
3e-06,7686.78,7465.43
3.01e-06,7686.21,7466.89
3.02e-06,7685.64,7468.34
3.03e-06,7685.08,7469.77
3.04e-06,7684.52,7471.19
3.05e-06,7683.97,7472.59
3.06e-06,7683.42,7473.99
3.07e-06,7682.88,7475.36
3.08e-06,7682.34,7476.73
3.09e-06,7681.81,7478.08
3.1e-06,7681.28,7479.42
3.11e-06,7680.76,7480.75
3.12e-06,7680.24,7482.06
3.13e-06,7679.73,7483.36
3.14e-06,7679.22,7484.65
3.15e-06,7678.72,7485.93
3.16e-06,7678.22,7487.2
3.17e-06,7677.73,7488.45
3.18e-06,7677.24,7489.69
3.19e-06,7676.76,7490.92
3.2e-06,7676.28,7492.14
3.21e-06,7675.8,7493.35
3.22e-06,7675.33,7494.54
3.23e-06,7674.87,7495.73
3.24e-06,7674.41,7496.9
3.25e-06,7673.95,7498.06
3.26e-06,7673.5,7499.21
3.27e-06,7673.05,7500.35
3.28e-06,7672.6,7501.48
3.29e-06,7672.16,7502.6
3.3e-06,7671.73,7503.71
3.31e-06,7671.29,7504.81
3.32e-06,7670.87,7505.89
3.33e-06,7670.44,7506.97
3.34e-06,7670.02,7508.04
3.35e-06,7669.61,7509.1
3.36e-06,7669.19,7510.15
3.37e-06,7668.79,7511.18
3.38e-06,7668.38,7512.21
3.39e-06,7667.98,7513.23
3.4e-06,7667.58,7514.24
3.41e-06,7667.19,7515.24
3.42e-06,7666.8,7516.23
3.43e-06,7666.42,7517.21
3.44e-06,7666.03,7518.18
3.45e-06,7665.65,7519.14
3.46e-06,7665.28,7520.1
3.47e-06,7664.91,7521.04
3.48e-06,7664.54,7521.98
3.49e-06,7664.17,7522.91
3.5e-06,7663.81,7523.83
3.51e-06,7663.45,7524.74
3.52e-06,7663.1,7525.64
3.53e-06,7662.75,7526.53
3.54e-06,7662.4,7527.42
3.55e-06,7662.05,7528.29
3.56e-06,7661.71,7529.16
3.57e-06,7661.37,7530.02
3.58e-06,7661.04,7530.88
3.59e-06,7660.71,7531.72
3.6e-06,7660.38,7532.56
3.61e-06,7660.05,7533.39
3.62e-06,7659.73,7534.21
3.63e-06,7659.41,7535.03
3.64e-06,7659.09,7535.83
3.65e-06,7658.77,7536.63
3.66e-06,7658.46,7537.42
3.67e-06,7658.15,7538.21
3.68e-06,7657.85,7538.98
3.69e-06,7657.55,7539.76
3.7e-06,7657.25,7540.52
3.71e-06,7656.95,7541.27
3.72e-06,7656.65,7542.02
3.73e-06,7656.36,7542.77
3.74e-06,7656.07,7543.5
3.75e-06,7655.79,7544.23
3.76e-06,7655.5,7544.95
3.77e-06,7655.22,7545.67
3.78e-06,7654.94,7546.38
3.79e-06,7654.66,7547.08
3.8e-06,7654.39,7547.77
3.81e-06,7654.12,7548.46
3.82e-06,7653.85,7549.15
3.83e-06,7653.58,7549.82
3.84e-06,7653.32,7550.49
3.85e-06,7653.06,7551.16
3.86e-06,7652.8,7551.82
3.87e-06,7652.54,7552.47
3.88e-06,7652.29,7553.11
3.89e-06,7652.04,7553.76
3.9e-06,7651.79,7554.39
3.91e-06,7651.54,7555.02
3.92e-06,7651.29,7555.64
3.93e-06,7651.05,7556.26
3.94e-06,7650.81,7556.87
3.95e-06,7650.57,7557.48
3.96e-06,7650.34,7558.08
3.97e-06,7650.1,7558.68
3.98e-06,7649.87,7559.27
3.99e-06,7649.64,7559.85
4e-06,7649.41,7560.43
4.01e-06,7649.19,7561.0
4.02e-06,7648.96,7561.57
4.03e-06,7648.74,7562.14
4.04e-06,7648.52,7562.69
4.05e-06,7648.3,7563.25
4.06e-06,7648.09,7563.79
4.07e-06,7647.88,7564.34
4.08e-06,7647.66,7564.88
4.09e-06,7647.45,7565.41
4.1e-06,7647.25,7565.94
4.11e-06,7647.04,7566.46
4.12e-06,7646.84,7566.98
4.13e-06,7646.63,7567.49
4.14e-06,7646.43,7568.0
4.15e-06,7646.23,7568.51
4.16e-06,7646.04,7569.01
4.17e-06,7645.84,7569.5
4.18e-06,7645.65,7569.99
4.19e-06,7645.46,7570.48
4.2e-06,7645.27,7570.96
4.21e-06,7645.08,7571.44
4.22e-06,7644.89,7571.91
4.23e-06,7644.71,7572.38
4.24e-06,7644.53,7572.85
4.25e-06,7644.35,7573.31
4.26e-06,7644.17,7573.76
4.27e-06,7643.99,7574.22
4.28e-06,7643.81,7574.66
4.29e-06,7643.64,7575.11
4.3e-06,7643.46,7575.55
4.31e-06,7643.29,7575.98
4.32e-06,7643.12,7576.42
4.33e-06,7642.95,7576.84
4.34e-06,7642.79,7577.27
4.35e-06,7642.62,7577.69
4.36e-06,7642.46,7578.11
4.37e-06,7642.29,7578.52
4.38e-06,7642.13,7578.93
4.39e-06,7641.97,7579.33
4.4e-06,7641.82,7579.74
4.41e-06,7641.66,7580.13
4.42e-06,7641.5,7580.53
4.43e-06,7641.35,7580.92
4.44e-06,7641.2,7581.31
4.45e-06,7641.05,7581.69
4.46e-06,7640.9,7582.07
4.47e-06,7640.75,7582.45
4.48e-06,7640.6,7582.82
4.49e-06,7640.45,7583.19
4.5e-06,7640.31,7583.56
4.51e-06,7640.17,7583.92
4.52e-06,7640.03,7584.29
4.53e-06,7639.88,7584.64
4.54e-06,7639.75,7585.0
4.55e-06,7639.61,7585.35
4.56e-06,7639.47,7585.69
4.57e-06,7639.33,7586.04
4.58e-06,7639.2,7586.38
4.59e-06,7639.07,7586.72
4.6e-06,7638.94,7587.05
4.61e-06,7638.8,7587.39
4.62e-06,7638.68,7587.72
4.63e-06,7638.55,7588.04
4.64e-06,7638.42,7588.37
4.65e-06,7638.29,7588.69
4.66e-06,7638.17,7589.0
4.67e-06,7638.04,7589.32
4.68e-06,7637.92,7589.63
4.69e-06,7637.8,7589.94
4.7e-06,7637.68,7590.25
4.71e-06,7637.56,7590.55
4.72e-06,7637.44,7590.85
4.73e-06,7637.32,7591.15
4.74e-06,7637.21,7591.44
4.75e-06,7637.09,7591.74
4.76e-06,7636.98,7592.03
4.77e-06,7636.87,7592.31
4.78e-06,7636.75,7592.6
4.79e-06,7636.64,7592.88
4.8e-06,7636.53,7593.16
4.81e-06,7636.42,7593.44
4.82e-06,7636.31,7593.71
4.83e-06,7636.21,7593.99
4.84e-06,7636.1,7594.26
4.85e-06,7636.0,7594.52
4.86e-06,7635.89,7594.79
4.87e-06,7635.79,7595.05
4.88e-06,7635.69,7595.31
4.89e-06,7635.58,7595.57
4.9e-06,7635.48,7595.82
4.91e-06,7635.38,7596.08
4.92e-06,7635.29,7596.33
4.93e-06,7635.19,7596.58
4.94e-06,7635.09,7596.82
4.95e-06,7634.99,7597.07
4.96e-06,7634.9,7597.31
4.97e-06,7634.8,7597.55
4.98e-06,7634.71,7597.79
4.99e-06,7634.62,7598.03
5e-06,7634.53,7598.26
5.01e-06,7634.43,7598.49
5.02e-06,7634.34,7598.72
5.03e-06,7634.25,7598.95
5.04e-06,7634.17,7599.17
5.05e-06,7634.08,7599.4
5.06e-06,7633.99,7599.62
5.07e-06,7633.9,7599.84
5.08e-06,7633.82,7600.06
5.09e-06,7633.73,7600.27
5.1e-06,7633.65,7600.48
5.11e-06,7633.57,7600.7
5.12e-06,7633.48,7600.91
5.13e-06,7633.4,7601.11
5.14e-06,7633.32,7601.32
5.15e-06,7633.24,7601.52
5.16e-06,7633.16,7601.73
5.17e-06,7633.08,7601.93
5.18e-06,7633.0,7602.13
5.19e-06,7632.93,7602.32
5.2e-06,7632.85,7602.52
5.21e-06,7632.77,7602.71
5.22e-06,7632.7,7602.9
5.23e-06,7632.62,7603.09
5.24e-06,7632.55,7603.28
5.25e-06,7632.48,7603.47
5.26e-06,7632.4,7603.65
5.27e-06,7632.33,7603.84
5.28e-06,7632.26,7604.02
5.29e-06,7632.19,7604.2
5.3e-06,7632.12,7604.38
5.31e-06,7632.05,7604.55
5.32e-06,7631.98,7604.73
5.33e-06,7631.91,7604.9
5.34e-06,7631.84,7605.08
5.35e-06,7631.78,7605.25
5.36e-06,7631.71,7605.42
5.37e-06,7631.64,7605.58
5.38e-06,7631.58,7605.75
5.39e-06,7631.51,7605.91
5.4e-06,7631.45,7606.08
5.41e-06,7631.38,7606.24
5.42e-06,7631.32,7606.4
5.43e-06,7631.26,7606.56
5.44e-06,7631.2,7606.72
5.45e-06,7631.14,7606.87
5.46e-06,7631.08,7607.03
5.47e-06,7631.01,7607.18
5.48e-06,7630.95,7607.33
5.49e-06,7630.9,7607.48
5.5e-06,7630.84,7607.63
5.51e-06,7630.78,7607.78
5.52e-06,7630.72,7607.93
5.53e-06,7630.66,7608.07
5.54e-06,7630.61,7608.21
5.55e-06,7630.55,7608.36
5.56e-06,7630.5,7608.5
5.57e-06,7630.44,7608.64
5.58e-06,7630.39,7608.78
5.59e-06,7630.33,7608.91
5.6e-06,7630.28,7609.05
5.61e-06,7630.22,7609.19
5.62e-06,7630.17,7609.32
5.63e-06,7630.12,7609.45
5.64e-06,7630.07,7609.59
5.65e-06,7630.02,7609.72
5.66e-06,7629.97,7609.84
5.67e-06,7629.92,7609.97
5.68e-06,7629.87,7610.1
5.69e-06,7629.82,7610.23
5.7e-06,7629.77,7610.35
5.71e-06,7629.72,7610.47
5.72e-06,7629.67,7610.6
5.73e-06,7629.62,7610.72
5.74e-06,7629.57,7610.84
5.75e-06,7629.53,7610.96
5.76e-06,7629.48,7611.08
5.77e-06,7629.43,7611.19
5.78e-06,7629.39,7611.31
5.79e-06,7629.34,7611.42
5.8e-06,7629.3,7611.54
5.81e-06,7629.25,7611.65
5.82e-06,7629.21,7611.76
5.83e-06,7629.17,7611.87
5.84e-06,7629.12,7611.98
5.85e-06,7629.08,7612.09
5.86e-06,7629.04,7612.2
5.87e-06,7629.0,7612.31
5.88e-06,7628.95,7612.42
5.89e-06,7628.91,7612.52
5.9e-06,7628.87,7612.62
5.91e-06,7628.83,7612.73
5.92e-06,7628.79,7612.83
5.93e-06,7628.75,7612.93
5.94e-06,7628.71,7613.03
5.95e-06,7628.67,7613.13
5.96e-06,7628.63,7613.23
5.97e-06,7628.59,7613.33
5.98e-06,7628.56,7613.43
5.99e-06,7628.52,7613.52
6e-06,7628.48,7613.62
6.01e-06,7628.44,7613.71
6.02e-06,7628.41,7613.81
6.03e-06,7628.37,7613.9
6.04e-06,7628.33,7613.99
6.05e-06,7628.3,7614.08
6.06e-06,7628.26,7614.17
6.07e-06,7628.23,7614.26
6.08e-06,7628.19,7614.35
6.09e-06,7628.16,7614.44
6.1e-06,7628.12,7614.53
6.11e-06,7628.09,7614.61
6.12e-06,7628.05,7614.7
6.13e-06,7628.02,7614.78
6.14e-06,7627.99,7614.87
6.15e-06,7627.96,7614.95
6.16e-06,7627.92,7615.03
6.17e-06,7627.89,7615.12
6.18e-06,7627.86,7615.2
6.19e-06,7627.83,7615.28
6.2e-06,7627.8,7615.36
6.21e-06,7627.76,7615.44
6.22e-06,7627.73,7615.52
6.23e-06,7627.7,7615.59
6.24e-06,7627.67,7615.67
6.25e-06,7627.64,7615.75
6.26e-06,7627.61,7615.82
6.27e-06,7627.58,7615.9
6.28e-06,7627.55,7615.97
6.29e-06,7627.52,7616.05
6.3e-06,7627.5,7616.12
6.31e-06,7627.47,7616.19
6.32e-06,7627.44,7616.26
6.33e-06,7627.41,7616.33
6.34e-06,7627.38,7616.4
6.35e-06,7627.36,7616.47
6.36e-06,7627.33,7616.54
6.37e-06,7627.3,7616.61
6.38e-06,7627.28,7616.68
6.39e-06,7627.25,7616.75
6.4e-06,7627.22,7616.81
6.41e-06,7627.2,7616.88
6.42e-06,7627.17,7616.95
6.43e-06,7627.15,7617.01
6.44e-06,7627.12,7617.07
6.45e-06,7627.09,7617.14
6.46e-06,7627.07,7617.2
6.47e-06,7627.04,7617.26
6.48e-06,7627.02,7617.33
6.49e-06,7627.0,7617.39
6.5e-06,7626.97,7617.45
6.51e-06,7626.95,7617.51
6.52e-06,7626.92,7617.57
6.53e-06,7626.9,7617.63
6.54e-06,7626.88,7617.69
6.55e-06,7626.86,7617.75
6.56e-06,7626.83,7617.8
6.57e-06,7626.81,7617.86
6.58e-06,7626.79,7617.92
6.59e-06,7626.77,7617.98
6.6e-06,7626.74,7618.03
6.61e-06,7626.72,7618.09
6.62e-06,7626.7,7618.14
6.63e-06,7626.68,7618.2
6.64e-06,7626.66,7618.25
6.65e-06,7626.64,7618.3
6.66e-06,7626.62,7618.36
6.67e-06,7626.59,7618.41
6.68e-06,7626.57,7618.46
6.69e-06,7626.55,7618.51
6.7e-06,7626.53,7618.56
6.71e-06,7626.51,7618.61
6.72e-06,7626.49,7618.66
6.73e-06,7626.47,7618.71
6.74e-06,7626.46,7618.76
6.75e-06,7626.44,7618.81
6.76e-06,7626.42,7618.86
6.77e-06,7626.4,7618.91
6.78e-06,7626.38,7618.96
6.79e-06,7626.36,7619.0
6.8e-06,7626.34,7619.05
6.81e-06,7626.32,7619.1
6.82e-06,7626.31,7619.14
6.83e-06,7626.29,7619.19
6.84e-06,7626.27,7619.23
6.85e-06,7626.25,7619.28
6.86e-06,7626.24,7619.32
6.87e-06,7626.22,7619.37
6.88e-06,7626.2,7619.41
6.89e-06,7626.18,7619.45
6.9e-06,7626.17,7619.5
6.91e-06,7626.15,7619.54
6.92e-06,7626.13,7619.58
6.93e-06,7626.12,7619.62
6.94e-06,7626.1,7619.66
6.95e-06,7626.08,7619.7
6.96e-06,7626.07,7619.74
6.97e-06,7626.05,7619.78
6.98e-06,7626.04,7619.82
6.99e-06,7626.02,7619.86
7e-06,7626.01,7619.9
7.01e-06,7625.99,7619.94
7.02e-06,7625.98,7619.98
7.03e-06,7625.96,7620.02
7.04e-06,7625.95,7620.06
7.05e-06,7625.93,7620.09
7.06e-06,7625.92,7620.13
7.07e-06,7625.9,7620.17
7.08e-06,7625.89,7620.2
7.09e-06,7625.87,7620.24
7.1e-06,7625.86,7620.28
7.11e-06,7625.85,7620.31
7.12e-06,7625.83,7620.35
7.13e-06,7625.82,7620.38
7.14e-06,7625.8,7620.42
7.15e-06,7625.79,7620.45
7.16e-06,7625.78,7620.48
7.17e-06,7625.76,7620.52
7.18e-06,7625.75,7620.55
7.19e-06,7625.74,7620.58
7.2e-06,7625.73,7620.62
7.21e-06,7625.71,7620.65
7.22e-06,7625.7,7620.68
7.23e-06,7625.69,7620.71
7.24e-06,7625.68,7620.74
7.25e-06,7625.66,7620.78
7.26e-06,7625.65,7620.81
7.27e-06,7625.64,7620.84
7.28e-06,7625.63,7620.87
7.29e-06,7625.61,7620.9
7.3e-06,7625.6,7620.93
7.31e-06,7625.59,7620.96
7.32e-06,7625.58,7620.99
7.33e-06,7625.57,7621.02
7.34e-06,7625.56,7621.05
7.35e-06,7625.55,7621.07
7.36e-06,7625.53,7621.1
7.37e-06,7625.52,7621.13
7.38e-06,7625.51,7621.16
7.39e-06,7625.5,7621.19
7.4e-06,7625.49,7621.21
7.41e-06,7625.48,7621.24
7.42e-06,7625.47,7621.27
7.43e-06,7625.46,7621.29
7.44e-06,7625.45,7621.32
7.45e-06,7625.44,7621.35
7.46e-06,7625.43,7621.37
7.47e-06,7625.42,7621.4
7.48e-06,7625.41,7621.42
7.49e-06,7625.4,7621.45
7.5e-06,7625.39,7621.47
7.51e-06,7625.38,7621.5
7.52e-06,7625.37,7621.52
7.53e-06,7625.36,7621.55
7.54e-06,7625.35,7621.57
7.55e-06,7625.34,7621.6
7.56e-06,7625.33,7621.62
7.57e-06,7625.32,7621.64
7.58e-06,7625.31,7621.67
7.59e-06,7625.3,7621.69
7.6e-06,7625.29,7621.71
7.61e-06,7625.28,7621.74
7.62e-06,7625.28,7621.76
7.63e-06,7625.27,7621.78
7.64e-06,7625.26,7621.8
7.65e-06,7625.25,7621.83
7.66e-06,7625.24,7621.85
7.67e-06,7625.23,7621.87
7.68e-06,7625.22,7621.89
7.69e-06,7625.22,7621.91
7.7e-06,7625.21,7621.93
7.71e-06,7625.2,7621.95
7.72e-06,7625.19,7621.97
7.73e-06,7625.18,7621.99
7.74e-06,7625.18,7622.01
7.75e-06,7625.17,7622.03
7.76e-06,7625.16,7622.05
7.77e-06,7625.15,7622.07
7.78e-06,7625.14,7622.09
7.79e-06,7625.14,7622.11
7.8e-06,7625.13,7622.13
7.81e-06,7625.12,7622.15
7.82e-06,7625.11,7622.17
7.83e-06,7625.11,7622.19
7.84e-06,7625.1,7622.21
7.85e-06,7625.09,7622.23
7.86e-06,7625.09,7622.24
7.87e-06,7625.08,7622.26
7.88e-06,7625.07,7622.28
7.89e-06,7625.06,7622.3
7.9e-06,7625.06,7622.31
7.91e-06,7625.05,7622.33
7.92e-06,7625.04,7622.35
7.93e-06,7625.04,7622.37
7.94e-06,7625.03,7622.38
7.95e-06,7625.02,7622.4
7.96e-06,7625.02,7622.42
7.97e-06,7625.01,7622.43
7.98e-06,7625.0,7622.45
7.99e-06,7625.0,7622.47
8e-06,7624.99,7622.48
8.01e-06,7624.98,7622.5
8.02e-06,7624.98,7622.51
8.03e-06,7624.97,7622.53
8.04e-06,7624.97,7622.55
