Time (s),$ T_{tr} $ (nexaFoam)_Temp,"$ T_{vib, N_2} $ (nexaFoam)_Temp"
0.0,30000.0,30000.0
1e-08,29903.6,1799.97
2e-08,29773.7,2391.75
3e-08,29641.8,2921.14
4e-08,29508.1,3414.94
5e-08,29372.6,3883.23
6e-08,29235.5,4331.11
7e-08,29097.0,4761.63
8e-08,28957.2,5176.85
9e-08,28816.5,5578.13
1e-07,28674.9,5966.64
1.1e-07,28532.7,6343.28
1.2e-07,28390.1,6708.78
1.3e-07,28247.3,7063.78
1.4e-07,28104.4,7408.81
1.5e-07,27961.6,7744.34
1.6e-07,27819.0,8070.8
1.7e-07,27676.8,8388.55
1.8e-07,27535.1,8697.93
1.9e-07,27394.0,8999.24
2e-07,27253.7,9292.77
2.1e-07,27114.2,9578.75
2.2e-07,26975.7,9857.43
2.3e-07,26838.2,10129.0
2.4e-07,26701.8,10393.7
2.5e-07,26566.6,10651.7
2.6e-07,26432.6,10903.1
2.7e-07,26299.9,11148.2
2.8e-07,26168.6,11387.0
2.9e-07,26038.7,11619.7
3e-07,25910.3,11846.5
3.1e-07,25783.3,12067.4
3.2e-07,25657.9,12282.6
3.3e-07,25533.9,12492.3
3.4e-07,25411.6,12696.4
3.5e-07,25290.8,12895.2
3.6e-07,25171.7,13088.8
3.7e-07,25054.1,13277.1
3.8e-07,24938.2,13460.4
3.9e-07,24823.9,13638.8
4e-07,24711.2,13812.2
4.1e-07,24600.2,13980.9
4.2e-07,24490.8,14144.9
4.3e-07,24383.0,14304.3
4.4e-07,24276.8,14459.1
4.5e-07,24172.3,14609.6
4.6e-07,24069.3,14755.7
4.7e-07,23968.0,14897.5
4.8e-07,23868.2,15035.2
4.9e-07,23770.0,15168.8
5e-07,23673.3,15298.3
5.1e-07,23578.2,15424.0
5.2e-07,23484.6,15545.8
5.3e-07,23392.5,15663.8
5.4e-07,23301.9,15778.1
5.5e-07,23212.8,15888.8
5.6e-07,23125.1,15996.0
5.7e-07,23038.8,16099.8
5.8e-07,22954.0,16200.1
5.9e-07,22870.5,16297.2
6e-07,22788.4,16391.0
6.1e-07,22707.6,16481.6
6.2e-07,22628.1,16569.2
6.3e-07,22550.0,16653.8
6.4e-07,22473.1,16735.4
6.5e-07,22397.5,16814.1
6.6e-07,22323.1,16890.0
6.7e-07,22249.9,16963.2
6.8e-07,22177.9,17033.8
6.9e-07,22107.1,17101.7
7e-07,22037.4,17167.1
7.1e-07,21968.9,17230.0
7.2e-07,21901.5,17290.5
7.3e-07,21835.1,17348.7
7.4e-07,21769.8,17404.5
7.5e-07,21705.6,17458.2
7.6e-07,21642.3,17509.7
7.7e-07,21580.1,17559.0
7.8e-07,21518.9,17606.3
7.9e-07,21458.6,17651.6
8e-07,21399.2,17695.0
8.1e-07,21340.8,17736.5
8.2e-07,21283.3,17776.1
8.3e-07,21226.7,17814.0
8.4e-07,21170.9,17850.1
8.5e-07,21116.0,17884.5
8.6e-07,21061.9,17917.3
8.7e-07,21008.7,17948.5
8.8e-07,20956.2,17978.1
8.9e-07,20904.5,18006.3
9e-07,20853.6,18033.0
9.1e-07,20803.5,18058.2
9.2e-07,20754.0,18082.1
9.3e-07,20705.3,18104.7
9.4e-07,20657.3,18125.9
9.5e-07,20610.0,18146.0
9.6e-07,20563.4,18164.8
9.7e-07,20517.4,18182.4
9.8e-07,20472.1,18198.8
9.9e-07,20427.4,18214.2
1e-06,20383.3,18228.5
1.01e-06,20339.9,18241.8
1.02e-06,20297.0,18254.0
1.03e-06,20254.7,18265.3
1.04e-06,20213.0,18275.6
1.05e-06,20171.9,18285.0
1.06e-06,20131.3,18293.5
1.07e-06,20091.3,18301.2
1.08e-06,20051.7,18308.0
1.09e-06,20012.7,18314.1
1.1e-06,19974.2,18319.3
1.11e-06,19936.2,18323.8
1.12e-06,19898.7,18327.6
1.13e-06,19861.6,18330.7
1.14e-06,19825.0,18333.1
1.15e-06,19788.9,18334.8
1.16e-06,19753.2,18335.9
1.17e-06,19718.0,18336.4
1.18e-06,19683.2,18336.3
1.19e-06,19648.8,18335.6
1.2e-06,19614.8,18334.4
1.21e-06,19581.3,18332.6
1.22e-06,19548.1,18330.4
1.23e-06,19515.3,18327.6
1.24e-06,19482.9,18324.3
1.25e-06,19450.9,18320.6
1.26e-06,19419.2,18316.5
1.27e-06,19387.9,18311.9
1.28e-06,19357.0,18306.9
1.29e-06,19326.4,18301.5
1.3e-06,19296.2,18295.7
1.31e-06,19266.2,18289.5
1.32e-06,19236.7,18283.0
1.33e-06,19207.4,18276.2
1.34e-06,19178.4,18269.0
1.35e-06,19149.8,18261.5
1.36e-06,19121.5,18253.7
1.37e-06,19093.4,18245.6
1.38e-06,19065.7,18237.2
1.39e-06,19038.3,18228.6
1.4e-06,19011.1,18219.7
1.41e-06,18984.2,18210.5
1.42e-06,18957.6,18201.1
1.43e-06,18931.2,18191.5
1.44e-06,18905.2,18181.6
1.45e-06,18879.3,18171.6
1.46e-06,18853.8,18161.3
1.47e-06,18828.4,18150.9
1.48e-06,18803.4,18140.2
1.49e-06,18778.5,18129.4
1.5e-06,18754.0,18118.4
1.51e-06,18729.6,18107.3
1.52e-06,18705.5,18096.0
1.53e-06,18681.6,18084.5
1.54e-06,18657.9,18072.9
1.55e-06,18634.4,18061.2
1.56e-06,18611.2,18049.4
1.57e-06,18588.1,18037.4
1.58e-06,18565.3,18025.3
1.59e-06,18542.7,18013.1
1.6e-06,18520.3,18000.8
1.61e-06,18498.1,17988.4
1.62e-06,18476.0,17976.0
1.63e-06,18454.2,17963.4
1.64e-06,18432.6,17950.7
1.65e-06,18411.1,17938.0
1.66e-06,18389.8,17925.2
1.67e-06,18368.7,17912.3
1.68e-06,18347.8,17899.4
1.69e-06,18327.1,17886.4
1.7e-06,18306.5,17873.4
1.71e-06,18286.1,17860.3
1.72e-06,18265.9,17847.1
1.73e-06,18245.8,17833.9
1.74e-06,18225.9,17820.7
1.75e-06,18206.2,17807.4
1.76e-06,18186.6,17794.1
1.77e-06,18167.1,17780.8
1.78e-06,18147.9,17767.4
1.79e-06,18128.7,17754.0
1.8e-06,18109.8,17740.6
1.81e-06,18090.9,17727.2
1.82e-06,18072.2,17713.8
1.83e-06,18053.7,17700.3
1.84e-06,18035.3,17686.8
1.85e-06,18017.0,17673.4
1.86e-06,17998.9,17659.9
1.87e-06,17980.9,17646.4
1.88e-06,17963.0,17632.9
1.89e-06,17945.3,17619.4
1.9e-06,17927.7,17605.9
1.91e-06,17910.2,17592.4
1.92e-06,17892.9,17579.0
1.93e-06,17875.7,17565.5
1.94e-06,17858.6,17552.0
1.95e-06,17841.6,17538.6
1.96e-06,17824.7,17525.1
1.97e-06,17808.0,17511.7
1.98e-06,17791.3,17498.3
1.99e-06,17774.8,17484.9
2e-06,17758.4,17471.6
2.01e-06,17742.1,17458.2
2.02e-06,17726.0,17444.9
2.03e-06,17709.9,17431.6
2.04e-06,17693.9,17418.3
2.05e-06,17678.1,17405.0
2.06e-06,17662.3,17391.8
2.07e-06,17646.7,17378.6
2.08e-06,17631.2,17365.4
2.09e-06,17615.7,17352.2
2.1e-06,17600.4,17339.1
2.11e-06,17585.1,17326.0
2.12e-06,17570.0,17313.0
2.13e-06,17555.0,17299.9
2.14e-06,17540.0,17286.9
2.15e-06,17525.1,17274.0
2.16e-06,17510.4,17261.0
2.17e-06,17495.7,17248.1
2.18e-06,17481.1,17235.3
2.19e-06,17466.6,17222.5
2.2e-06,17452.2,17209.7
2.21e-06,17437.9,17196.9
2.22e-06,17423.7,17184.2
2.23e-06,17409.6,17171.5
2.24e-06,17395.5,17158.9
2.25e-06,17381.5,17146.3
2.26e-06,17367.7,17133.7
2.27e-06,17353.9,17121.2
2.28e-06,17340.1,17108.7
2.29e-06,17326.5,17096.3
2.3e-06,17312.9,17083.9
2.31e-06,17299.4,17071.5
2.32e-06,17286.0,17059.2
2.33e-06,17272.7,17046.9
2.34e-06,17259.5,17034.7
2.35e-06,17246.3,17022.5
2.36e-06,17233.2,17010.3
2.37e-06,17220.2,16998.2
2.38e-06,17207.2,16986.2
2.39e-06,17194.3,16974.1
2.4e-06,17181.5,16962.2
2.41e-06,17168.8,16950.2
2.42e-06,17156.1,16938.3
2.43e-06,17143.5,16926.5
2.44e-06,17131.0,16914.7
2.45e-06,17118.5,16902.9
2.46e-06,17106.1,16891.2
2.47e-06,17093.8,16879.5
2.48e-06,17081.5,16867.9
2.49e-06,17069.3,16856.3
2.5e-06,17057.2,16844.7
2.51e-06,17045.1,16833.2
2.52e-06,17033.1,16821.8
2.53e-06,17021.2,16810.3
2.54e-06,17009.3,16799.0
2.55e-06,16997.5,16787.6
2.56e-06,16985.7,16776.4
2.57e-06,16974.0,16765.1
2.58e-06,16962.4,16753.9
2.59e-06,16950.8,16742.8
2.6e-06,16939.3,16731.6
2.61e-06,16927.9,16720.6
2.62e-06,16916.5,16709.6
2.63e-06,16905.1,16698.6
2.64e-06,16893.8,16687.6
2.65e-06,16882.6,16676.7
2.66e-06,16871.4,16665.9
2.67e-06,16860.3,16655.1
2.68e-06,16849.2,16644.3
2.69e-06,16838.2,16633.6
2.7e-06,16827.3,16622.9
2.71e-06,16816.4,16612.3
2.72e-06,16805.5,16601.7
2.73e-06,16794.7,16591.1
2.74e-06,16784.0,16580.6
2.75e-06,16773.3,16570.1
2.76e-06,16762.7,16559.7
2.77e-06,16752.1,16549.3
2.78e-06,16741.5,16539.0
2.79e-06,16731.0,16528.6
2.8e-06,16720.6,16518.4
2.81e-06,16710.2,16508.2
2.82e-06,16699.8,16498.0
2.83e-06,16689.5,16487.8
2.84e-06,16679.3,16477.7
2.85e-06,16669.1,16467.7
2.86e-06,16658.9,16457.7
2.87e-06,16648.8,16447.7
2.88e-06,16638.8,16437.7
2.89e-06,16628.8,16427.8
2.9e-06,16618.8,16418.0
2.91e-06,16608.9,16408.2
2.92e-06,16599.0,16398.4
2.93e-06,16589.1,16388.6
2.94e-06,16579.3,16378.9
2.95e-06,16569.6,16369.3
2.96e-06,16559.9,16359.6
2.97e-06,16550.2,16350.1
2.98e-06,16540.6,16340.5
2.99e-06,16531.0,16331.0
3e-06,16521.5,16321.5
3.01e-06,16512.0,16312.1
3.02e-06,16502.5,16302.7
3.03e-06,16493.1,16293.3
3.04e-06,16483.7,16284.0
3.05e-06,16474.4,16274.7
3.06e-06,16465.1,16265.5
3.07e-06,16455.9,16256.3
3.08e-06,16446.6,16247.1
3.09e-06,16437.5,16238.0
3.1e-06,16428.3,16228.8
3.11e-06,16419.2,16219.8
3.12e-06,16410.2,16210.7
3.13e-06,16401.2,16201.8
3.14e-06,16392.2,16192.8
3.15e-06,16383.2,16183.9
3.16e-06,16374.3,16175.0
3.17e-06,16365.4,16166.1
3.18e-06,16356.6,16157.3
3.19e-06,16347.8,16148.5
3.2e-06,16339.0,16139.8
3.21e-06,16330.3,16131.1
3.22e-06,16321.6,16122.4
3.23e-06,16313.0,16113.7
3.24e-06,16304.3,16105.1
3.25e-06,16295.7,16096.5
3.26e-06,16287.2,16088.0
3.27e-06,16278.7,16079.5
3.28e-06,16270.2,16071.0
3.29e-06,16261.7,16062.5
3.3e-06,16253.3,16054.1
3.31e-06,16244.9,16045.7
3.32e-06,16236.6,16037.4
3.33e-06,16228.2,16029.0
3.34e-06,16220.0,16020.8
3.35e-06,16211.7,16012.5
3.36e-06,16203.5,16004.3
3.37e-06,16195.3,15996.1
3.38e-06,16187.1,15987.9
3.39e-06,16179.0,15979.8
3.4e-06,16170.9,15971.7
3.41e-06,16162.8,15963.6
3.42e-06,16154.8,15955.6
3.43e-06,16146.8,15947.6
3.44e-06,16138.8,15939.6
3.45e-06,16130.9,15931.6
3.46e-06,16123.0,15923.7
3.47e-06,16115.1,15915.8
3.48e-06,16107.2,15907.9
3.49e-06,16099.4,15900.1
3.5e-06,16091.6,15892.3
3.51e-06,16083.8,15884.5
3.52e-06,16076.1,15876.8
3.53e-06,16068.4,15869.1
3.54e-06,16060.7,15861.4
3.55e-06,16053.0,15853.7
3.56e-06,16045.4,15846.1
3.57e-06,16037.8,15838.5
3.58e-06,16030.2,15830.9
3.59e-06,16022.7,15823.4
3.6e-06,16015.2,15815.8
3.61e-06,16007.7,15808.4
3.62e-06,16000.2,15800.9
3.63e-06,15992.8,15793.4
3.64e-06,15985.4,15786.0
3.65e-06,15978.0,15778.6
3.66e-06,15970.7,15771.3
3.67e-06,15963.3,15764.0
3.68e-06,15956.0,15756.6
3.69e-06,15948.7,15749.4
3.7e-06,15941.5,15742.1
3.71e-06,15934.3,15734.9
3.72e-06,15927.1,15727.7
3.73e-06,15919.9,15720.5
3.74e-06,15912.7,15713.4
3.75e-06,15905.6,15706.2
3.76e-06,15898.5,15699.1
3.77e-06,15891.4,15692.0
3.78e-06,15884.4,15685.0
3.79e-06,15877.3,15678.0
3.8e-06,15870.3,15671.0
3.81e-06,15863.4,15664.0
3.82e-06,15856.4,15657.0
3.83e-06,15849.5,15650.1
3.84e-06,15842.6,15643.2
3.85e-06,15835.7,15636.3
3.86e-06,15828.8,15629.5
3.87e-06,15822.0,15622.6
3.88e-06,15815.2,15615.8
3.89e-06,15808.4,15609.0
3.9e-06,15801.6,15602.3
3.91e-06,15794.8,15595.5
3.92e-06,15788.1,15588.8
3.93e-06,15781.4,15582.1
3.94e-06,15774.7,15575.4
3.95e-06,15768.1,15568.8
3.96e-06,15761.4,15562.2
3.97e-06,15754.8,15555.6
3.98e-06,15748.2,15549.0
3.99e-06,15741.7,15542.4
4e-06,15735.1,15535.9
4.01e-06,15728.6,15529.4
4.02e-06,15722.1,15522.9
4.03e-06,15715.6,15516.4
4.04e-06,15709.1,15509.9
4.05e-06,15702.7,15503.5
4.06e-06,15696.2,15497.1
4.07e-06,15689.8,15490.7
4.08e-06,15683.4,15484.3
4.09e-06,15677.1,15478.0
4.1e-06,15670.7,15471.7
4.11e-06,15664.4,15465.4
4.12e-06,15658.1,15459.1
4.13e-06,15651.8,15452.8
4.14e-06,15645.6,15446.6
4.15e-06,15639.3,15440.4
4.16e-06,15633.1,15434.2
4.17e-06,15626.9,15428.0
4.18e-06,15620.7,15421.8
4.19e-06,15614.5,15415.7
4.2e-06,15608.4,15409.5
4.21e-06,15602.3,15403.4
4.22e-06,15596.1,15397.4
4.23e-06,15590.1,15391.3
4.24e-06,15584.0,15385.2
4.25e-06,15577.9,15379.2
4.26e-06,15571.9,15373.2
4.27e-06,15565.9,15367.2
4.28e-06,15559.9,15361.3
4.29e-06,15553.9,15355.3
4.3e-06,15547.9,15349.4
4.31e-06,15542.0,15343.5
4.32e-06,15536.1,15337.6
4.33e-06,15530.2,15331.7
4.34e-06,15524.3,15325.8
4.35e-06,15518.4,15320.0
4.36e-06,15512.5,15314.2
4.37e-06,15506.7,15308.4
4.38e-06,15500.9,15302.6
4.39e-06,15495.1,15296.8
4.4e-06,15489.3,15291.1
4.41e-06,15483.5,15285.3
4.42e-06,15477.8,15279.6
4.43e-06,15472.0,15273.9
4.44e-06,15466.3,15268.2
4.45e-06,15460.6,15262.6
4.46e-06,15454.9,15256.9
4.47e-06,15449.3,15251.3
4.48e-06,15443.6,15245.7
4.49e-06,15438.0,15240.1
4.5e-06,15432.4,15234.5
4.51e-06,15426.8,15228.9
4.52e-06,15421.2,15223.4
4.53e-06,15415.6,15217.9
4.54e-06,15410.0,15212.4
4.55e-06,15404.5,15206.9
4.56e-06,15399.0,15201.4
4.57e-06,15393.5,15195.9
4.58e-06,15388.0,15190.5
4.59e-06,15382.5,15185.0
4.6e-06,15377.0,15179.6
4.61e-06,15371.6,15174.2
4.62e-06,15366.2,15168.8
4.63e-06,15360.8,15163.5
4.64e-06,15355.4,15158.1
4.65e-06,15350.0,15152.8
4.66e-06,15344.6,15147.5
4.67e-06,15339.2,15142.2
4.68e-06,15333.9,15136.9
4.69e-06,15328.6,15131.6
4.7e-06,15323.3,15126.3
4.71e-06,15318.0,15121.1
4.72e-06,15312.7,15115.9
4.73e-06,15307.4,15110.6
4.74e-06,15302.2,15105.4
4.75e-06,15296.9,15100.3
4.76e-06,15291.7,15095.1
4.77e-06,15286.5,15089.9
4.78e-06,15281.3,15084.8
4.79e-06,15276.1,15079.7
4.8e-06,15271.0,15074.6
4.81e-06,15265.8,15069.5
4.82e-06,15260.7,15064.4
4.83e-06,15255.6,15059.3
4.84e-06,15250.5,15054.3
4.85e-06,15245.4,15049.2
4.86e-06,15240.3,15044.2
4.87e-06,15235.2,15039.2
4.88e-06,15230.1,15034.2
4.89e-06,15225.1,15029.2
4.9e-06,15220.1,15024.2
4.91e-06,15215.1,15019.3
4.92e-06,15210.1,15014.3
4.93e-06,15205.1,15009.4
4.94e-06,15200.1,15004.5
4.95e-06,15195.1,14999.6
4.96e-06,15190.2,14994.7
4.97e-06,15185.2,14989.8
4.98e-06,15180.3,14984.9
4.99e-06,15175.4,14980.1
5e-06,15170.5,14975.2
5.01e-06,15165.6,14970.4
5.02e-06,15160.8,14965.6
5.03e-06,15155.9,14960.8
5.04e-06,15151.1,14956.0
5.05e-06,15146.2,14951.3
5.06e-06,15141.4,14946.5
5.07e-06,15136.6,14941.7
5.08e-06,15131.8,14937.0
5.09e-06,15127.0,14932.3
5.1e-06,15122.2,14927.6
5.11e-06,15117.5,14922.9
5.12e-06,15112.7,14918.2
5.13e-06,15108.0,14913.5
5.14e-06,15103.3,14908.9
5.15e-06,15098.5,14904.2
5.16e-06,15093.8,14899.6
5.17e-06,15089.2,14895.0
5.18e-06,15084.5,14890.4
5.19e-06,15079.8,14885.8
5.2e-06,15075.2,14881.2
5.21e-06,15070.5,14876.6
5.22e-06,15065.9,14872.0
5.23e-06,15061.3,14867.5
5.24e-06,15056.7,14862.9
5.25e-06,15052.1,14858.4
5.26e-06,15047.5,14853.9
5.27e-06,15042.9,14849.4
5.28e-06,15038.3,14844.9
5.29e-06,15033.8,14840.4
5.3e-06,15029.3,14835.9
5.31e-06,15024.7,14831.5
5.32e-06,15020.2,14827.0
5.33e-06,15015.7,14822.6
5.34e-06,15011.2,14818.2
5.35e-06,15006.7,14813.8
5.36e-06,15002.3,14809.3
5.37e-06,14997.8,14805.0
5.38e-06,14993.3,14800.6
5.39e-06,14988.9,14796.2
5.4e-06,14984.5,14791.8
5.41e-06,14980.0,14787.5
5.42e-06,14975.6,14783.2
5.43e-06,14971.2,14778.8
5.44e-06,14966.9,14774.5
5.45e-06,14962.5,14770.2
5.46e-06,14958.1,14765.9
5.47e-06,14953.8,14761.6
5.48e-06,14949.4,14757.4
5.49e-06,14945.1,14753.1
5.5e-06,14940.7,14748.8
5.51e-06,14936.4,14744.6
5.52e-06,14932.1,14740.4
5.53e-06,14927.8,14736.1
5.54e-06,14923.5,14731.9
5.55e-06,14919.3,14727.7
5.56e-06,14915.0,14723.5
5.57e-06,14910.8,14719.4
5.58e-06,14906.5,14715.2
5.59e-06,14902.3,14711.0
5.6e-06,14898.0,14706.9
5.61e-06,14893.8,14702.7
5.62e-06,14889.6,14698.6
5.63e-06,14885.4,14694.5
5.64e-06,14881.2,14690.4
5.65e-06,14877.1,14686.3
5.66e-06,14872.9,14682.2
5.67e-06,14868.7,14678.1
5.68e-06,14864.6,14674.0
5.69e-06,14860.5,14670.0
5.7e-06,14856.3,14665.9
5.71e-06,14852.2,14661.9
5.72e-06,14848.1,14657.8
5.73e-06,14844.0,14653.8
5.74e-06,14839.9,14649.8
5.75e-06,14835.8,14645.8
5.76e-06,14831.8,14641.8
5.77e-06,14827.7,14637.8
5.78e-06,14823.6,14633.8
5.79e-06,14819.6,14629.9
5.8e-06,14815.6,14625.9
5.81e-06,14811.5,14622.0
5.82e-06,14807.5,14618.0
5.83e-06,14803.5,14614.1
5.84e-06,14799.5,14610.2
5.85e-06,14795.5,14606.3
5.86e-06,14791.5,14602.3
5.87e-06,14787.6,14598.5
5.88e-06,14783.6,14594.6
5.89e-06,14779.6,14590.7
5.9e-06,14775.7,14586.8
5.91e-06,14771.8,14583.0
5.92e-06,14767.8,14579.1
5.93e-06,14763.9,14575.3
5.94e-06,14760.0,14571.4
5.95e-06,14756.1,14567.6
5.96e-06,14752.2,14563.8
5.97e-06,14748.3,14560.0
5.98e-06,14744.4,14556.2
5.99e-06,14740.6,14552.4
6e-06,14736.7,14548.6
6.01e-06,14732.8,14544.8
6.02e-06,14729.0,14541.1
6.03e-06,14725.2,14537.3
6.04e-06,14721.3,14533.6
6.05e-06,14717.5,14529.8
6.06e-06,14713.7,14526.1
6.07e-06,14709.9,14522.4
6.08e-06,14706.1,14518.7
6.09e-06,14702.3,14514.9
6.1e-06,14698.5,14511.2
6.11e-06,14694.8,14507.6
6.12e-06,14691.0,14503.9
6.13e-06,14687.3,14500.2
6.14e-06,14683.5,14496.5
6.15e-06,14679.8,14492.9
6.16e-06,14676.0,14489.2
6.17e-06,14672.3,14485.6
6.18e-06,14668.6,14481.9
6.19e-06,14664.9,14478.3
6.2e-06,14661.2,14474.7
6.21e-06,14657.5,14471.1
6.22e-06,14653.8,14467.5
6.23e-06,14650.1,14463.9
6.24e-06,14646.5,14460.3
6.25e-06,14642.8,14456.7
6.26e-06,14639.2,14453.1
6.27e-06,14635.5,14449.6
6.28e-06,14631.9,14446.0
6.29e-06,14628.2,14442.5
6.3e-06,14624.6,14438.9
6.31e-06,14621.0,14435.4
6.32e-06,14617.4,14431.9
6.33e-06,14613.8,14428.3
6.34e-06,14610.2,14424.8
6.35e-06,14606.6,14421.3
6.36e-06,14603.0,14417.8
6.37e-06,14599.5,14414.3
6.38e-06,14595.9,14410.9
6.39e-06,14592.3,14407.4
6.4e-06,14588.8,14403.9
6.41e-06,14585.3,14400.4
6.42e-06,14581.7,14397.0
6.43e-06,14578.2,14393.5
6.44e-06,14574.7,14390.1
6.45e-06,14571.2,14386.7
6.46e-06,14567.7,14383.2
6.47e-06,14564.2,14379.8
6.48e-06,14560.7,14376.4
6.49e-06,14557.2,14373.0
6.5e-06,14553.7,14369.6
6.51e-06,14550.2,14366.2
6.52e-06,14546.8,14362.8
6.53e-06,14543.3,14359.5
6.54e-06,14539.9,14356.1
6.55e-06,14536.4,14352.7
6.56e-06,14533.0,14349.4
6.57e-06,14529.5,14346.0
6.58e-06,14526.1,14342.7
6.59e-06,14522.7,14339.4
6.6e-06,14519.3,14336.0
6.61e-06,14515.9,14332.7
6.62e-06,14512.5,14329.4
6.63e-06,14509.1,14326.1
6.64e-06,14505.7,14322.8
6.65e-06,14502.3,14319.5
6.66e-06,14499.0,14316.2
6.67e-06,14495.6,14312.9
6.68e-06,14492.3,14309.6
6.69e-06,14488.9,14306.4
6.7e-06,14485.6,14303.1
6.71e-06,14482.2,14299.9
6.72e-06,14478.9,14296.6
6.73e-06,14475.6,14293.4
6.74e-06,14472.3,14290.1
6.75e-06,14468.9,14286.9
6.76e-06,14465.6,14283.7
6.77e-06,14462.3,14280.5
6.78e-06,14459.0,14277.2
6.79e-06,14455.8,14274.0
6.8e-06,14452.5,14270.8
6.81e-06,14449.2,14267.6
6.82e-06,14445.9,14264.5
6.83e-06,14442.7,14261.3
6.84e-06,14439.4,14258.1
6.85e-06,14436.2,14254.9
6.86e-06,14432.9,14251.8
6.87e-06,14429.7,14248.6
6.88e-06,14426.5,14245.5
6.89e-06,14423.2,14242.3
6.9e-06,14420.0,14239.2
6.91e-06,14416.8,14236.1
6.92e-06,14413.6,14232.9
6.93e-06,14410.4,14229.8
6.94e-06,14407.2,14226.7
6.95e-06,14404.0,14223.6
6.96e-06,14400.8,14220.5
6.97e-06,14397.7,14217.4
6.98e-06,14394.5,14214.3
6.99e-06,14391.3,14211.2
7e-06,14388.2,14208.2
7.01e-06,14385.0,14205.1
7.02e-06,14381.9,14202.0
7.03e-06,14378.7,14199.0
7.04e-06,14375.6,14195.9
7.05e-06,14372.5,14192.9
7.06e-06,14369.4,14189.8
7.07e-06,14366.2,14186.8
7.08e-06,14363.1,14183.8
7.09e-06,14360.0,14180.7
7.1e-06,14356.9,14177.7
7.11e-06,14353.8,14174.7
7.12e-06,14350.7,14171.7
7.13e-06,14347.7,14168.7
7.14e-06,14344.6,14165.7
7.15e-06,14341.5,14162.7
7.16e-06,14338.4,14159.7
7.17e-06,14335.4,14156.7
7.18e-06,14332.3,14153.8
7.19e-06,14329.3,14150.8
7.2e-06,14326.2,14147.8
7.21e-06,14323.2,14144.9
7.22e-06,14320.2,14141.9
7.23e-06,14317.1,14139.0
7.24e-06,14314.1,14136.0
7.25e-06,14311.1,14133.1
7.26e-06,14308.1,14130.2
7.27e-06,14305.1,14127.2
7.28e-06,14302.1,14124.3
7.29e-06,14299.1,14121.4
7.3e-06,14296.1,14118.5
7.31e-06,14293.1,14115.6
7.32e-06,14290.1,14112.7
7.33e-06,14287.2,14109.8
7.34e-06,14284.2,14106.9
7.35e-06,14281.2,14104.0
7.36e-06,14278.3,14101.1
7.37e-06,14275.3,14098.3
7.38e-06,14272.4,14095.4
7.39e-06,14269.4,14092.5
7.4e-06,14266.5,14089.7
7.41e-06,14263.6,14086.8
7.42e-06,14260.6,14084.0
7.43e-06,14257.7,14081.1
7.44e-06,14254.8,14078.3
7.45e-06,14251.9,14075.5
7.46e-06,14249.0,14072.7
7.47e-06,14246.1,14069.8
7.48e-06,14243.2,14067.0
7.49e-06,14240.3,14064.2
7.5e-06,14237.4,14061.4
7.51e-06,14234.5,14058.6
7.52e-06,14231.6,14055.8
7.53e-06,14228.8,14053.0
7.54e-06,14225.9,14050.2
7.55e-06,14223.0,14047.4
7.56e-06,14220.2,14044.7
7.57e-06,14217.3,14041.9
7.58e-06,14214.5,14039.1
7.59e-06,14211.6,14036.4
7.6e-06,14208.8,14033.6
7.61e-06,14206.0,14030.8
7.62e-06,14203.1,14028.1
7.63e-06,14200.3,14025.4
7.64e-06,14197.5,14022.6
7.65e-06,14194.7,14019.9
7.66e-06,14191.9,14017.2
7.67e-06,14189.1,14014.4
7.68e-06,14186.3,14011.7
7.69e-06,14183.5,14009.0
7.7e-06,14180.7,14006.3
7.71e-06,14177.9,14003.6
7.72e-06,14175.1,14000.9
7.73e-06,14172.4,13998.2
7.74e-06,14169.6,13995.5
7.75e-06,14166.8,13992.8
7.76e-06,14164.1,13990.1
7.77e-06,14161.3,13987.4
7.78e-06,14158.6,13984.8
7.79e-06,14155.8,13982.1
7.8e-06,14153.1,13979.4
7.81e-06,14150.3,13976.8
7.82e-06,14147.6,13974.1
7.83e-06,14144.9,13971.5
7.84e-06,14142.1,13968.8
7.85e-06,14139.4,13966.2
7.86e-06,14136.7,13963.5
7.87e-06,14134.0,13960.9
7.88e-06,14131.3,13958.3
7.89e-06,14128.6,13955.7
7.9e-06,14125.9,13953.0
7.91e-06,14123.2,13950.4
7.92e-06,14120.5,13947.8
7.93e-06,14117.8,13945.2
7.94e-06,14115.1,13942.6
7.95e-06,14112.5,13940.0
7.96e-06,14109.8,13937.4
7.97e-06,14107.1,13934.8
7.98e-06,14104.5,13932.2
7.99e-06,14101.8,13929.7
8e-06,14099.2,13927.1
8.01e-06,14096.5,13924.5
8.02e-06,14093.9,13921.9
8.03e-06,14091.2,13919.4
8.04e-06,14088.6,13916.8
8.05e-06,14086.0,13914.3
