Time (s),$ T_{tr} $ (nexaFoam)_Temp,"$ T_{vib, N_2} $ (nexaFoam)_Temp","$ T_{vib, O_2} $ (nexaFoam)_Temp"
0.0,5000.0,5000.0,5000.0
1e-09,4913.83,29996.5,29946.5
2e-09,4917.68,29993.3,29895.8
3e-09,4925.97,29990.2,29845.4
4e-09,4935.57,29986.9,29794.9
5e-09,4945.57,29983.7,29744.2
6e-09,4955.73,29980.4,29693.2
7e-09,4965.97,29977.1,29642.0
8e-09,4976.28,29973.8,29590.5
9e-09,4986.64,29970.4,29538.8
1e-08,4997.06,29967.0,29486.9
1.1e-08,5007.53,29963.6,29434.7
1.2e-08,5018.06,29960.1,29382.2
1.3e-08,5028.65,29956.6,29329.5
1.4e-08,5039.29,29953.0,29276.5
1.5e-08,5049.99,29949.4,29223.2
1.6e-08,5060.74,29945.8,29169.7
1.7e-08,5071.56,29942.1,29115.9
1.8e-08,5082.43,29938.4,29061.9
1.9e-08,5093.36,29934.6,29007.6
2e-08,5104.35,29930.8,28953.0
2.1e-08,5115.4,29927.0,28898.1
2.2e-08,5126.5,29923.1,28843.0
2.3e-08,5137.67,29919.1,28787.6
2.4e-08,5148.9,29915.2,28732.0
2.5e-08,5160.18,29911.2,28676.0
2.6e-08,5171.53,29907.1,28619.8
2.7e-08,5182.94,29903.0,28563.3
2.8e-08,5194.41,29898.8,28506.6
2.9e-08,5205.94,29894.6,28449.5
3e-08,5217.54,29890.4,28392.2
3.1e-08,5229.2,29886.1,28334.6
3.2e-08,5240.92,29881.8,28276.7
3.3e-08,5252.7,29877.4,28218.6
3.4e-08,5264.55,29872.9,28160.1
3.5e-08,5276.46,29868.4,28101.4
3.6e-08,5288.43,29863.9,28042.4
3.7e-08,5300.47,29859.3,27983.1
3.8e-08,5312.58,29854.7,27923.5
3.9e-08,5324.75,29850.0,27863.6
4e-08,5336.98,29845.2,27803.4
4.1e-08,5349.28,29840.4,27742.9
4.2e-08,5361.65,29835.5,27682.2
4.3e-08,5374.08,29830.6,27621.1
4.4e-08,5386.59,29825.6,27559.8
4.5e-08,5399.15,29820.6,27498.1
4.6e-08,5411.79,29815.5,27436.2
4.7e-08,5424.5,29810.3,27373.9
4.8e-08,5437.27,29805.1,27311.4
4.9e-08,5450.11,29799.9,27248.6
5e-08,5463.02,29794.5,27185.4
5.1e-08,5476.0,29789.1,27122.0
5.2e-08,5489.05,29783.7,27058.3
5.3e-08,5502.17,29778.1,26994.2
5.4e-08,5515.36,29772.5,26929.9
5.5e-08,5528.62,29766.9,26865.2
5.6e-08,5541.95,29761.2,26800.3
5.7e-08,5555.36,29755.4,26735.0
5.8e-08,5568.83,29749.5,26669.5
5.9e-08,5582.38,29743.6,26603.6
6e-08,5595.99,29737.6,26537.4
6.1e-08,5609.69,29731.5,26471.0
6.2e-08,5623.45,29725.4,26404.2
6.3e-08,5637.29,29719.1,26337.1
6.4e-08,5651.2,29712.8,26269.7
6.5e-08,5665.18,29706.5,26202.0
6.6e-08,5679.24,29700.0,26134.0
6.7e-08,5693.37,29693.5,26065.6
6.8e-08,5707.58,29686.9,25997.0
6.9e-08,5721.86,29680.2,25928.1
7e-08,5736.21,29673.4,25858.8
7.1e-08,5750.64,29666.6,25789.3
7.2e-08,5765.15,29659.6,25719.4
7.3e-08,5779.73,29652.6,25649.2
7.4e-08,5794.39,29645.5,25578.7
7.5e-08,5809.12,29638.3,25507.9
7.6e-08,5823.93,29631.0,25436.8
7.7e-08,5838.82,29623.7,25365.4
7.8e-08,5853.78,29616.2,25293.7
7.9e-08,5868.83,29608.6,25221.7
8e-08,5883.94,29601.0,25149.3
8.1e-08,5899.14,29593.3,25076.7
8.2e-08,5914.41,29585.4,25003.7
8.3e-08,5929.76,29577.5,24930.5
8.4e-08,5945.19,29569.5,24856.9
8.5e-08,5960.69,29561.3,24783.1
8.6e-08,5976.28,29553.1,24708.9
8.7e-08,5991.94,29544.8,24634.4
8.8e-08,6007.68,29536.3,24559.7
8.9e-08,6023.5,29527.8,24484.6
9e-08,6039.39,29519.1,24409.2
9.1e-08,6055.37,29510.4,24333.6
9.2e-08,6071.42,29501.5,24257.6
9.3e-08,6087.56,29492.5,24181.4
9.4e-08,6103.77,29483.4,24104.8
9.5e-08,6120.06,29474.2,24028.0
9.6e-08,6136.43,29464.9,23950.8
9.7e-08,6152.87,29455.5,23873.4
9.8e-08,6169.4,29445.9,23795.7
9.9e-08,6186.0,29436.2,23717.7
1e-07,6202.69,29426.4,23639.4
1.01e-07,6219.45,29416.5,23560.9
1.02e-07,6236.29,29406.4,23482.1
1.03e-07,6253.21,29396.3,23402.9
1.04e-07,6270.21,29386.0,23323.6
1.05e-07,6287.28,29375.5,23243.9
1.06e-07,6304.44,29365.0,23164.0
1.07e-07,6321.67,29354.3,23083.8
1.08e-07,6338.98,29343.4,23003.3
1.09e-07,6356.36,29332.4,22922.6
1.1e-07,6373.83,29321.3,22841.7
1.11e-07,6391.37,29310.1,22760.4
1.12e-07,6408.99,29298.7,22679.0
1.13e-07,6426.69,29287.1,22597.2
1.14e-07,6444.46,29275.5,22515.3
1.15e-07,6462.31,29263.6,22433.1
1.16e-07,6480.23,29251.6,22350.6
1.17e-07,6498.23,29239.5,22268.0
1.18e-07,6516.31,29227.2,22185.1
1.19e-07,6534.46,29214.8,22101.9
1.2e-07,6552.68,29202.2,22018.6
1.21e-07,6570.98,29189.4,21935.0
1.22e-07,6589.36,29176.5,21851.2
1.23e-07,6607.8,29163.4,21767.3
1.24e-07,6626.32,29150.2,21683.1
1.25e-07,6644.91,29136.7,21598.7
1.26e-07,6663.58,29123.2,21514.1
1.27e-07,6682.31,29109.4,21429.4
1.28e-07,6701.12,29095.5,21344.4
1.29e-07,6719.99,29081.4,21259.3
1.3e-07,6738.94,29067.1,21174.0
1.31e-07,6757.95,29052.6,21088.5
1.32e-07,6777.04,29038.0,21002.9
1.33e-07,6796.19,29023.2,20917.1
1.34e-07,6815.4,29008.2,20831.2
1.35e-07,6834.69,28993.0,20745.2
1.36e-07,6854.04,28977.6,20659.0
1.37e-07,6873.45,28962.0,20572.6
1.38e-07,6892.93,28946.2,20486.2
1.39e-07,6912.47,28930.2,20399.6
1.4e-07,6932.08,28914.1,20313.0
1.41e-07,6951.74,28897.7,20226.2
1.42e-07,6971.47,28881.1,20139.3
1.43e-07,6991.25,28864.4,20052.4
1.44e-07,7011.1,28847.4,19965.3
1.45e-07,7031.0,28830.2,19878.2
1.46e-07,7050.96,28812.8,19791.0
1.47e-07,7070.98,28795.2,19703.8
1.48e-07,7091.05,28777.4,19616.5
1.49e-07,7111.17,28759.3,19529.2
1.5e-07,7131.35,28741.1,19441.9
1.51e-07,7151.58,28722.6,19354.5
1.52e-07,7171.86,28703.9,19267.1
1.53e-07,7192.18,28684.9,19179.7
1.54e-07,7212.56,28665.8,19092.3
1.55e-07,7232.99,28646.4,19004.9
1.56e-07,7253.46,28626.8,18917.5
1.57e-07,7273.97,28606.9,18830.2
1.58e-07,7294.53,28586.8,18742.9
1.59e-07,7315.13,28566.5,18655.6
1.6e-07,7335.77,28545.9,18568.4
1.61e-07,7356.45,28525.1,18481.3
1.62e-07,7377.17,28504.0,18394.2
1.63e-07,7397.92,28482.7,18307.2
1.64e-07,7418.71,28461.2,18220.3
1.65e-07,7439.54,28439.4,18133.5
1.66e-07,7460.39,28417.3,18046.9
1.67e-07,7481.28,28395.0,17960.3
1.68e-07,7502.2,28372.5,17873.9
1.69e-07,7523.14,28349.7,17787.6
1.7e-07,7544.11,28326.6,17701.5
1.71e-07,7565.11,28303.3,17615.5
1.72e-07,7586.13,28279.7,17529.7
1.73e-07,7607.17,28255.8,17444.1
1.74e-07,7628.24,28231.7,17358.7
1.75e-07,7649.32,28207.3,17273.5
1.76e-07,7670.42,28182.6,17188.5
1.77e-07,7691.53,28157.7,17103.8
1.78e-07,7712.66,28132.5,17019.2
1.79e-07,7733.8,28107.0,16935.0
1.8e-07,7754.95,28081.2,16850.9
1.81e-07,7776.11,28055.2,16767.2
1.82e-07,7797.28,28028.9,16683.7
1.83e-07,7818.45,28002.3,16600.5
1.84e-07,7839.63,27975.4,16517.6
1.85e-07,7860.81,27948.3,16435.0
1.86e-07,7881.99,27920.8,16352.8
1.87e-07,7903.17,27893.1,16270.9
1.88e-07,7924.34,27865.1,16189.3
1.89e-07,7945.52,27836.8,16108.0
1.9e-07,7966.68,27808.2,16027.1
1.91e-07,7987.84,27779.4,15946.6
1.92e-07,8008.99,27750.2,15866.5
1.93e-07,8030.12,27720.8,15786.8
1.94e-07,8051.25,27691.0,15707.5
1.95e-07,8072.36,27661.0,15628.5
1.96e-07,8093.45,27630.7,15550.0
1.97e-07,8114.52,27600.0,15472.0
1.98e-07,8135.58,27569.1,15394.4
1.99e-07,8156.61,27537.9,15317.2
2e-07,8177.62,27506.4,15240.5
2.01e-07,8198.6,27474.6,15164.3
2.02e-07,8219.56,27442.6,15088.5
2.03e-07,8240.49,27410.2,15013.2
2.04e-07,8261.39,27377.5,14938.5
2.05e-07,8282.26,27344.5,14864.2
2.06e-07,8303.09,27311.2,14790.4
2.07e-07,8323.89,27277.7,14717.2
2.08e-07,8344.66,27243.8,14644.5
2.09e-07,8365.38,27209.7,14572.4
2.1e-07,8386.07,27175.2,14500.8
2.11e-07,8406.71,27140.4,14429.7
2.12e-07,8427.32,27105.4,14359.3
2.13e-07,8447.87,27070.1,14289.4
2.14e-07,8468.39,27034.4,14220.0
2.15e-07,8488.85,26998.5,14151.3
2.16e-07,8509.27,26962.3,14083.1
2.17e-07,8529.64,26925.8,14015.6
2.18e-07,8549.95,26889.0,13948.7
2.19e-07,8570.21,26851.9,13882.3
2.2e-07,8590.42,26814.5,13816.6
2.21e-07,8610.58,26776.9,13751.6
2.22e-07,8630.67,26738.9,13687.1
2.23e-07,8650.71,26700.7,13623.3
2.24e-07,8670.69,26662.1,13560.2
2.25e-07,8690.61,26623.3,13497.6
2.26e-07,8710.46,26584.2,13435.8
2.27e-07,8730.26,26544.9,13374.6
2.28e-07,8749.99,26505.2,13314.0
2.29e-07,8769.65,26465.3,13254.2
2.3e-07,8789.25,26425.1,13195.0
2.31e-07,8808.78,26384.6,13136.4
2.32e-07,8828.24,26343.9,13078.6
2.33e-07,8847.64,26302.8,13021.4
2.34e-07,8866.96,26261.5,12965.0
2.35e-07,8886.21,26220.0,12909.2
2.36e-07,8905.39,26178.2,12854.1
2.37e-07,8924.49,26136.1,12799.6
2.38e-07,8943.52,26093.7,12745.9
2.39e-07,8962.48,26051.1,12692.9
2.4e-07,8981.36,26008.3,12640.6
2.41e-07,9000.17,25965.2,12589.0
2.42e-07,9018.89,25921.8,12538.0
2.43e-07,9037.54,25878.2,12487.8
2.44e-07,9056.11,25834.3,12438.3
2.45e-07,9074.6,25790.2,12389.5
2.46e-07,9093.02,25745.9,12341.4
2.47e-07,9111.35,25701.3,12294.0
2.48e-07,9129.6,25656.5,12247.3
2.49e-07,9147.77,25611.4,12201.3
2.5e-07,9165.86,25566.1,12156.0
2.51e-07,9183.86,25520.6,12111.4
2.52e-07,9201.78,25474.9,12067.5
2.53e-07,9219.62,25428.9,12024.3
2.54e-07,9237.38,25382.7,11981.8
2.55e-07,9255.05,25336.3,11940.0
2.56e-07,9272.63,25289.7,11898.9
2.57e-07,9290.14,25242.9,11858.5
2.58e-07,9307.55,25195.9,11818.8
2.59e-07,9324.89,25148.7,11779.8
2.6e-07,9342.13,25101.2,11741.4
2.61e-07,9359.3,25053.6,11703.8
2.62e-07,9376.37,25005.8,11666.8
2.63e-07,9393.36,24957.8,11630.5
2.64e-07,9410.27,24909.6,11594.9
2.65e-07,9427.09,24861.2,11559.9
2.66e-07,9443.82,24812.6,11525.6
2.67e-07,9460.46,24763.9,11492.0
2.68e-07,9477.02,24715.0,11459.0
2.69e-07,9493.5,24665.9,11426.7
2.7e-07,9509.89,24616.7,11395.1
2.71e-07,9526.19,24567.3,11364.1
2.72e-07,9542.41,24517.7,11333.7
2.73e-07,9558.54,24468.0,11304.0
2.74e-07,9574.58,24418.1,11274.9
2.75e-07,9590.54,24368.1,11246.4
2.76e-07,9606.41,24317.9,11218.6
2.77e-07,9622.2,24267.6,11191.3
2.78e-07,9637.91,24217.2,11164.7
2.79e-07,9653.53,24166.6,11138.7
2.8e-07,9669.06,24115.9,11113.3
2.81e-07,9684.51,24065.1,11088.5
2.82e-07,9699.87,24014.1,11064.3
2.83e-07,9715.15,23963.0,11040.7
2.84e-07,9730.35,23911.8,11017.6
2.85e-07,9745.47,23860.5,10995.2
2.86e-07,9760.5,23809.1,10973.3
2.87e-07,9775.44,23757.6,10951.9
2.88e-07,9790.31,23706.0,10931.2
2.89e-07,9805.09,23654.3,10910.9
2.9e-07,9819.79,23602.5,10891.3
2.91e-07,9834.41,23550.6,10872.1
2.92e-07,9848.95,23498.6,10853.5
2.93e-07,9863.41,23446.5,10835.4
2.94e-07,9877.79,23394.4,10817.9
2.95e-07,9892.08,23342.2,10800.8
2.96e-07,9906.3,23289.9,10784.3
2.97e-07,9920.44,23237.5,10768.3
2.98e-07,9934.5,23185.1,10752.7
2.99e-07,9948.48,23132.6,10737.7
3e-07,9962.38,23080.1,10723.1
3.01e-07,9976.21,23027.5,10709.0
3.02e-07,9989.96,22974.9,10695.4
3.03e-07,10003.6,22922.2,10682.2
3.04e-07,10017.2,22869.5,10669.5
3.05e-07,10030.7,22816.7,10657.3
3.06e-07,10044.2,22763.9,10645.5
3.07e-07,10057.6,22711.1,10634.1
3.08e-07,10070.8,22658.3,10623.2
3.09e-07,10084.1,22605.4,10612.7
3.1e-07,10097.2,22552.5,10602.6
3.11e-07,10110.3,22499.6,10592.9
3.12e-07,10123.3,22446.6,10583.7
3.13e-07,10136.2,22393.7,10574.8
3.14e-07,10149.1,22340.8,10566.3
3.15e-07,10161.8,22287.8,10558.2
3.16e-07,10174.6,22234.9,10550.5
3.17e-07,10187.2,22181.9,10543.2
3.18e-07,10199.8,22129.0,10536.2
3.19e-07,10212.3,22076.1,10529.6
3.2e-07,10224.7,22023.1,10523.4
3.21e-07,10237.1,21970.2,10517.5
3.22e-07,10249.4,21917.4,10511.9
3.23e-07,10261.6,21864.5,10506.7
3.24e-07,10273.8,21811.7,10501.8
3.25e-07,10285.8,21758.9,10497.3
3.26e-07,10297.9,21706.1,10493.1
3.27e-07,10309.8,21653.4,10489.1
3.28e-07,10321.7,21600.7,10485.5
3.29e-07,10333.6,21548.1,10482.2
3.3e-07,10345.3,21495.5,10479.2
3.31e-07,10357.0,21442.9,10476.5
3.32e-07,10368.7,21390.4,10474.1
3.33e-07,10380.2,21338.0,10471.9
3.34e-07,10391.7,21285.6,10470.1
3.35e-07,10403.2,21233.2,10468.4
3.36e-07,10414.6,21181.0,10467.1
3.37e-07,10425.9,21128.8,10466.0
3.38e-07,10437.1,21076.6,10465.2
3.39e-07,10448.3,21024.6,10464.6
3.4e-07,10459.5,20972.6,10464.3
3.41e-07,10470.5,20920.7,10464.2
3.42e-07,10481.5,20868.8,10464.3
3.43e-07,10492.5,20817.1,10464.7
3.44e-07,10503.4,20765.4,10465.3
3.45e-07,10514.2,20713.8,10466.1
3.46e-07,10525.0,20662.3,10467.1
3.47e-07,10535.7,20610.9,10468.3
3.48e-07,10546.4,20559.7,10469.7
3.49e-07,10557.0,20508.5,10471.4
3.5e-07,10567.5,20457.4,10473.2
3.51e-07,10578.0,20406.4,10475.2
3.52e-07,10588.4,20355.5,10477.4
3.53e-07,10598.8,20304.7,10479.8
3.54e-07,10609.1,20254.0,10482.3
3.55e-07,10619.4,20203.4,10485.1
3.56e-07,10629.6,20153.0,10488.0
3.57e-07,10639.7,20102.7,10491.0
3.58e-07,10649.8,20052.5,10494.2
3.59e-07,10659.8,20002.4,10497.6
3.6e-07,10669.8,19952.4,10501.1
3.61e-07,10679.7,19902.6,10504.8
3.62e-07,10689.6,19852.8,10508.6
3.63e-07,10699.4,19803.3,10512.6
3.64e-07,10709.2,19753.8,10516.7
3.65e-07,10718.9,19704.5,10520.9
3.66e-07,10728.6,19655.3,10525.3
3.67e-07,10738.2,19606.3,10529.8
3.68e-07,10747.7,19557.4,10534.4
3.69e-07,10757.2,19508.6,10539.1
3.7e-07,10766.7,19460.0,10544.0
3.71e-07,10776.1,19411.5,10548.9
3.72e-07,10785.4,19363.2,10554.0
3.73e-07,10794.7,19315.0,10559.2
3.74e-07,10803.9,19267.0,10564.4
3.75e-07,10813.1,19219.2,10569.8
3.76e-07,10822.3,19171.4,10575.3
3.77e-07,10831.4,19123.9,10580.8
3.78e-07,10840.4,19076.5,10586.5
3.79e-07,10849.4,19029.3,10592.2
3.8e-07,10858.3,18982.2,10598.0
3.81e-07,10867.2,18935.3,10603.9
3.82e-07,10876.0,18888.5,10609.9
3.83e-07,10884.8,18841.9,10616.0
3.84e-07,10893.6,18795.5,10622.1
3.85e-07,10902.3,18749.3,10628.3
3.86e-07,10910.9,18703.2,10634.6
3.87e-07,10919.5,18657.3,10640.9
3.88e-07,10928.0,18611.5,10647.3
3.89e-07,10936.5,18566.0,10653.7
3.9e-07,10945.0,18520.6,10660.2
3.91e-07,10953.4,18475.4,10666.8
3.92e-07,10961.7,18430.3,10673.4
3.93e-07,10970.0,18385.5,10680.1
3.94e-07,10978.3,18340.8,10686.8
3.95e-07,10986.5,18296.3,10693.6
3.96e-07,10994.7,18252.0,10700.4
3.97e-07,11002.8,18207.9,10707.3
3.98e-07,11010.8,18163.9,10714.2
3.99e-07,11018.9,18120.2,10721.1
4e-07,11026.8,18076.6,10728.1
4.01e-07,11034.8,18033.2,10735.1
4.02e-07,11042.6,17990.0,10742.1
4.03e-07,11050.5,17947.0,10749.2
4.04e-07,11058.3,17904.2,10756.3
4.05e-07,11066.0,17861.6,10763.4
4.06e-07,11073.7,17819.2,10770.5
4.07e-07,11081.4,17776.9,10777.7
4.08e-07,11089.0,17734.9,10784.9
4.09e-07,11096.5,17693.0,10792.1
4.1e-07,11104.1,17651.4,10799.3
4.11e-07,11111.5,17609.9,10806.6
4.12e-07,11118.9,17568.7,10813.8
4.13e-07,11126.3,17527.6,10821.1
4.14e-07,11133.7,17486.7,10828.4
4.15e-07,11141.0,17446.1,10835.7
4.16e-07,11148.2,17405.6,10843.0
4.17e-07,11155.4,17365.3,10850.4
4.18e-07,11162.6,17325.3,10857.7
4.19e-07,11169.7,17285.4,10865.0
4.2e-07,11176.8,17245.7,10872.4
4.21e-07,11183.8,17206.3,10879.7
4.22e-07,11190.8,17167.0,10887.0
4.23e-07,11197.7,17128.0,10894.4
4.24e-07,11204.6,17089.1,10901.7
4.25e-07,11211.5,17050.4,10909.1
4.26e-07,11218.3,17012.0,10916.4
4.27e-07,11225.1,16973.8,10923.7
4.28e-07,11231.8,16935.7,10931.1
4.29e-07,11238.5,16897.9,10938.4
4.3e-07,11245.1,16860.2,10945.7
4.31e-07,11251.7,16822.8,10953.0
4.32e-07,11258.3,16785.6,10960.3
4.33e-07,11264.8,16748.6,10967.6
4.34e-07,11271.3,16711.8,10974.9
4.35e-07,11277.7,16675.1,10982.2
4.36e-07,11284.1,16638.7,10989.5
4.37e-07,11290.4,16602.5,10996.7
4.38e-07,11296.7,16566.6,11003.9
4.39e-07,11303.0,16530.8,11011.2
4.4e-07,11309.2,16495.2,11018.4
4.41e-07,11315.4,16459.8,11025.6
4.42e-07,11321.6,16424.7,11032.7
4.43e-07,11327.7,16389.7,11039.9
4.44e-07,11333.7,16354.9,11047.0
4.45e-07,11339.7,16320.4,11054.1
4.46e-07,11345.7,16286.0,11061.2
4.47e-07,11351.7,16251.9,11068.3
4.48e-07,11357.6,16218.0,11075.4
4.49e-07,11363.4,16184.3,11082.4
4.5e-07,11369.3,16150.7,11089.4
4.51e-07,11375.0,16117.4,11096.4
4.52e-07,11380.8,16084.3,11103.4
4.53e-07,11386.5,16051.4,11110.3
4.54e-07,11392.2,16018.7,11117.2
4.55e-07,11397.8,15986.2,11124.1
4.56e-07,11403.4,15953.9,11131.0
4.57e-07,11408.9,15921.8,11137.8
4.58e-07,11414.4,15889.9,11144.7
4.59e-07,11419.9,15858.2,11151.5
4.6e-07,11425.3,15826.7,11158.2
4.61e-07,11430.7,15795.5,11165.0
4.62e-07,11436.1,15764.4,11171.7
4.63e-07,11441.4,15733.5,11178.4
4.64e-07,11446.7,15702.8,11185.0
4.65e-07,11451.9,15672.4,11191.6
4.66e-07,11457.2,15642.1,11198.2
4.67e-07,11462.3,15612.0,11204.8
4.68e-07,11467.5,15582.1,11211.3
4.69e-07,11472.6,15552.4,11217.9
4.7e-07,11477.6,15523.0,11224.3
4.71e-07,11482.6,15493.7,11230.8
4.72e-07,11487.6,15464.6,11237.2
4.73e-07,11492.6,15435.7,11243.6
4.74e-07,11497.5,15407.0,11249.9
4.75e-07,11502.4,15378.5,11256.3
4.76e-07,11507.2,15350.2,11262.6
4.77e-07,11512.0,15322.1,11268.8
4.78e-07,11516.8,15294.2,11275.0
4.79e-07,11521.5,15266.5,11281.2
4.8e-07,11526.2,15239.0,11287.4
4.81e-07,11530.9,15211.6,11293.5
4.82e-07,11535.5,15184.5,11299.6
4.83e-07,11540.1,15157.5,11305.7
4.84e-07,11544.7,15130.8,11311.7
4.85e-07,11549.2,15104.2,11317.7
4.86e-07,11553.7,15077.8,11323.7
4.87e-07,11558.2,15051.7,11329.6
4.88e-07,11562.6,15025.6,11335.5
4.89e-07,11567.0,14999.8,11341.4
4.9e-07,11571.4,14974.2,11347.2
4.91e-07,11575.7,14948.8,11353.0
4.92e-07,11580.0,14923.5,11358.8
4.93e-07,11584.3,14898.4,11364.5
4.94e-07,11588.5,14873.5,11370.2
4.95e-07,11592.7,14848.8,11375.9
4.96e-07,11596.9,14824.3,11381.5
4.97e-07,11601.0,14800.0,11387.1
4.98e-07,11605.1,14775.8,11392.7
4.99e-07,11609.2,14751.8,11398.2
5e-07,11613.2,14728.0,11403.7
5.01e-07,11617.2,14704.4,11409.2
5.02e-07,11621.2,14680.9,11414.6
5.03e-07,11625.1,14657.7,11420.0
5.04e-07,11629.0,14634.6,11425.3
5.05e-07,11632.9,14611.6,11430.6
5.06e-07,11636.8,14588.9,11435.9
5.07e-07,11640.6,14566.3,11441.2
5.08e-07,11644.4,14543.9,11446.4
5.09e-07,11648.1,14521.7,11451.6
5.1e-07,11651.8,14499.6,11456.7
5.11e-07,11655.5,14477.7,11461.9
5.12e-07,11659.2,14456.0,11466.9
5.13e-07,11662.9,14434.5,11472.0
5.14e-07,11666.5,14413.1,11477.0
5.15e-07,11670.0,14391.9,11482.0
5.16e-07,11673.6,14370.8,11486.9
5.17e-07,11677.1,14349.9,11491.8
5.18e-07,11680.6,14329.2,11496.7
5.19e-07,11684.1,14308.7,11501.6
5.2e-07,11687.5,14288.3,11506.4
5.21e-07,11690.9,14268.0,11511.1
5.22e-07,11694.3,14248.0,11515.9
5.23e-07,11697.7,14228.1,11520.6
5.24e-07,11701.0,14208.3,11525.3
5.25e-07,11704.3,14188.7,11529.9
5.26e-07,11707.5,14169.3,11534.5
5.27e-07,11710.8,14150.0,11539.1
5.28e-07,11714.0,14130.9,11543.7
5.29e-07,11717.2,14111.9,11548.2
5.3e-07,11720.4,14093.1,11552.7
5.31e-07,11723.5,14074.4,11557.1
5.32e-07,11726.6,14055.9,11561.5
5.33e-07,11729.7,14037.6,11565.9
5.34e-07,11732.7,14019.3,11570.2
5.35e-07,11735.8,14001.3,11574.6
5.36e-07,11738.8,13983.4,11578.9
5.37e-07,11741.8,13965.6,11583.1
5.38e-07,11744.7,13948.0,11587.3
5.39e-07,11747.7,13930.5,11591.5
5.4e-07,11750.6,13913.2,11595.7
5.41e-07,11753.4,13896.0,11599.8
5.42e-07,11756.3,13879.0,11603.9
5.43e-07,11759.1,13862.1,11608.0
5.44e-07,11761.9,13845.3,11612.0
5.45e-07,11764.7,13828.7,11616.0
5.46e-07,11767.5,13812.2,11620.0
5.47e-07,11770.2,13795.9,11623.9
5.48e-07,11772.9,13779.7,11627.8
5.49e-07,11775.6,13763.6,11631.7
5.5e-07,11778.3,13747.7,11635.6
5.51e-07,11780.9,13731.9,11639.4
5.52e-07,11783.6,13716.2,11643.2
5.53e-07,11786.2,13700.7,11646.9
5.54e-07,11788.7,13685.3,11650.7
5.55e-07,11791.3,13670.0,11654.4
5.56e-07,11793.8,13654.9,11658.0
5.57e-07,11796.3,13639.9,11661.7
5.58e-07,11798.8,13625.0,11665.3
5.59e-07,11801.3,13610.3,11668.9
5.6e-07,11803.7,13595.6,11672.4
5.61e-07,11806.1,13581.1,11676.0
5.62e-07,11808.5,13566.8,11679.5
5.63e-07,11810.9,13552.5,11682.9
5.64e-07,11813.3,13538.4,11686.4
5.65e-07,11815.6,13524.4,11689.8
5.66e-07,11817.9,13510.5,11693.2
5.67e-07,11820.2,13496.8,11696.5
5.68e-07,11822.5,13483.1,11699.9
5.69e-07,11824.7,13469.6,11703.2
5.7e-07,11827.0,13456.2,11706.5
5.71e-07,11829.2,13442.9,11709.7
5.72e-07,11831.4,13429.8,11712.9
5.73e-07,11833.6,13416.7,11716.1
5.74e-07,11835.7,13403.8,11719.3
5.75e-07,11837.9,13391.0,11722.4
5.76e-07,11840.0,13378.3,11725.6
5.77e-07,11842.1,13365.7,11728.7
5.78e-07,11844.2,13353.2,11731.7
5.79e-07,11846.2,13340.8,11734.8
5.8e-07,11848.3,13328.6,11737.8
5.81e-07,11850.3,13316.4,11740.8
5.82e-07,11852.3,13304.4,11743.7
5.83e-07,11854.3,13292.4,11746.7
5.84e-07,11856.2,13280.6,11749.6
5.85e-07,11858.2,13268.9,11752.5
5.86e-07,11860.1,13257.3,11755.3
5.87e-07,11862.0,13245.7,11758.2
5.88e-07,11863.9,13234.3,11761.0
5.89e-07,11865.8,13223.0,11763.8
5.9e-07,11867.7,13211.8,11766.6
5.91e-07,11869.5,13200.7,11769.3
5.92e-07,11871.4,13189.7,11772.0
5.93e-07,11873.2,13178.8,11774.7
5.94e-07,11875.0,13168.0,11777.4
5.95e-07,11876.7,13157.3,11780.1
5.96e-07,11878.5,13146.7,11782.7
5.97e-07,11880.3,13136.2,11785.3
5.98e-07,11882.0,13125.7,11787.9
5.99e-07,11883.7,13115.4,11790.4
6e-07,11885.4,13105.2,11793.0
6.01e-07,11887.1,13095.1,11795.5
6.02e-07,11888.8,13085.0,11798.0
6.03e-07,11890.4,13075.1,11800.5
6.04e-07,11892.0,13065.2,11802.9
6.05e-07,11893.7,13055.4,11805.3
6.06e-07,11895.3,13045.7,11807.7
6.07e-07,11896.9,13036.2,11810.1
6.08e-07,11898.4,13026.6,11812.5
